#FILE:VA_130319_Cu_02_Ar.ngb-ss1
#FORMAT:NETZSCH5
#IDENTITY:VA_130319_Cu_02_Ar
#DECIMAL:POINT
#SEPARATOR:SEMICOLON
#MTYPE:DSC
#INSTRUMENT:NETZSCH STA 449F1
#PROJECT:oxide hydroxide
#DATE/TIME:19.03.2013 11:34:23
#CORR. FILE:
#LABORATORY:Нанотех
#OPERATOR:Compositers
#REMARK:
#SAMPLE:VA_130319_Cu_02_Ar
#SAMPLE MASS /mg:7.81
#MATERIAL:MxOy.kH2O
#REFERENCE:
#REFERENCE MASS /mg:0
#TYPE OF CRUCIBLE:DSC/TG pan Pt-Rh
#SAMPLE CRUCIBLE MASS /mg:183.71
#REFERENCE CRUCIBLE MASS /mg:185
#CORR. CODE:000
#EXO:+1
#RANGE:20/2.0(K/min)/350
#SEGMENT:S1/1

##Temp./°C;Time/min;DSC/(uV/mg);Mass/%;Gas Flow(protective)/(ml/min);Sensit./(uV/mW)
23.9404	     0.00000      0.25692   100.0000   20.00000 1.04891
23.9409	     0.16500      0.25683   99.99447   20.00000 1.04891
23.9407	     0.33000      0.25682   99.99452   20.00000 1.04891
23.9416	     0.49500      0.25663   99.99429   20.00000 1.04891
23.9461	     0.66000      0.25623   99.99427   20.00000 1.04891
23.9556	     0.82500      0.25663   99.99106   20.00000 1.04891
23.9709	     0.99000      0.25643   99.98712   20.00000 1.04891
23.994	     1.15500      0.25625   99.97656   20.00000 1.04891
24.0271	     1.32000      0.25653   99.97543   20.00000 1.04891
24.0708	     1.48500      0.25626   99.98484   20.00000 1.04891
24.1237	     1.65000      0.25653   99.98352   20.00000 1.04891
24.1883	     1.81500      0.25647   99.99734   20.00000 1.04891
24.2685	     1.98000      0.25623   99.99575   20.00000 1.04891
24.3621	     2.14500      0.25556   100.0089   20.00000 1.04891
24.4674	     2.31000      0.25467   100.0187   20.00000 1.04890
24.5841	     2.47500      0.25386   100.0269   20.00000 1.04888
24.7149	     2.64000      0.25262   100.0235   20.00000 1.04887
24.8555	     2.80500      0.25060   100.0125   20.00000 1.04884
24.9998	     2.97000      0.24881   100.0061   20.00000 1.04881
25.1532	     3.13500      0.24687   99.99987   20.00000 1.04878
25.3163	     3.30000      0.24402   99.99407   20.00000 1.04873
25.4885	     3.46500      0.24158   99.98745   20.00000 1.04868
25.6664	     3.63000      0.23973   99.9874   20.00000 1.04862
25.8519	     3.79500      0.23660   99.98812   20.00000 1.04856
26.0473	     3.96000      0.23416   99.99915   20.00000 1.04848
26.2494	     4.12500      0.23270   99.9955   20.00000 1.04841
26.4549	     4.29000      0.23015   99.99648   20.00000 1.04833
26.6661	     4.45500      0.22806   99.9982   20.00000 1.04824
26.8837	     4.62000      0.22605   99.98917   20.00000 1.04815
27.1051	     4.78500      0.22478   99.99388   20.00000 1.04806
27.3308	     4.95000      0.22283   100.0012   20.00000 1.04796
27.561	     5.11500      0.22115   100.0038   20.00000 1.04785
27.7953	     5.28000      0.22019   100.0015   20.00000 1.04775
28.0344	     5.44500      0.21914   100.0092   20.00000 1.04763
28.2757	     5.61000      0.21745   100.0012   20.00000 1.04752
28.5219	     5.77500      0.21643   100.0024   20.00000 1.04740
28.7716	     5.94000      0.21560   100.0028   20.00000 1.04728
29.0251	     6.10500      0.21372   100.0044   20.00000 1.04716
29.2814	     6.27000      0.21325   100.0066   20.00000 1.04703
29.5398	     6.43500      0.21203   99.99566   20.00000 1.04691
29.8023	     6.60000      0.21013   99.99882   20.00000 1.04677
30.0661	     6.76500      0.20934   100.0037   20.00000 1.04664
30.3329	     6.93000      0.20886   99.99983   20.00000 1.04651
30.6003	     7.09500      0.20705   100.0018   20.00000 1.04637
30.8704	     7.26000      0.20602   99.99853   20.00000 1.04623
31.1419	     7.42500      0.20512   100.0040   20.00000 1.04609
31.4152	     7.59000      0.20348   100.0038   20.00000 1.04595
31.6926	     7.75500      0.20341   100.0024   20.00000 1.04581
31.9725	     7.92000      0.20133   99.9958   20.00000 1.04566
32.2537	     8.08500      0.20162   100.0036   20.00000 1.04551
32.5361	     8.25000      0.20006   100.0008   20.00000 1.04537
32.8216	     8.41500      0.19989   99.99485   20.00000 1.04522
33.108	     8.58000      0.19909   100.0017   20.00000 1.04507
33.3953	     8.74500      0.19748   100.0031   20.00000 1.04492
33.6839	     8.91000      0.19743   100.0031   20.00000 1.04476
33.9732	     9.07500      0.19652   100.0012   20.00000 1.04461
34.2649	     9.24000      0.19577   99.99647   20.00000 1.04445
34.5564	     9.40500      0.19527   100.0046   20.00000 1.04430
34.8501	     9.57000      0.19362   100.0047   20.00000 1.04414
35.1426	     9.73500      0.19355   100.0011   20.00000 1.04398
35.4364	     9.90000      0.19274   100.0004   20.00000 1.04382
35.7317	    10.06500      0.19241   99.99524   20.00000 1.04366
36.0282	    10.23000      0.19147   99.99903   20.00000 1.04350
36.3259	    10.39500      0.19077   99.99773   20.00000 1.04334
36.6245	    10.56000      0.19020   99.99999   20.00000 1.04318
36.9241	    10.72500      0.18891   99.99775   20.00000 1.04302
37.2239	    10.89000      0.18873   100.0026   20.00000 1.04285
37.5243	    11.05500      0.18834   99.99705   20.00000 1.04269
37.8251	    11.22000      0.18688   99.99646   20.00000 1.04253
38.1265	    11.38500      0.18603   99.99157   20.00000 1.04236
38.4299	    11.55000      0.18561   99.99243   20.00000 1.04220
38.7335	    11.71500      0.18464   99.98656   20.00000 1.04203
39.0388	    11.88000      0.18385   99.98826   20.00000 1.04187
39.3441	    12.04500      0.18351   99.97539   20.00000 1.04170
39.6507	    12.21000      0.18199   99.97695   20.00000 1.04153
39.9568	    12.37500      0.18120   99.95391   20.00000 1.04137
40.2625	    12.54000      0.18141   99.93528   20.00000 1.04120
40.5691	    12.70500      0.17931   99.90888   20.00000 1.04103
40.8757	    12.87000      0.17838   99.89949   20.00000 1.04086
41.1834	    13.03500      0.17836   99.8729   20.00000 1.04069
41.4899	    13.20000      0.17691   99.8487   20.00000 1.04053
41.7969	    13.36500      0.17578   99.82826   20.00000 1.04036
42.1042	    13.53000      0.17554   99.79988   20.00000 1.04018
42.4097	    13.69500      0.17430   99.77434   20.00000 1.04001
42.7156	    13.86000      0.17310   99.73594   20.00000 1.03984
43.0205	    14.02500      0.17206   99.69857   20.00000 1.03967
43.3238	    14.19000      0.17027   99.66959   20.00000 1.03950
43.6263	    14.35500      0.16864   99.61036   20.00000 1.03933
43.9276	    14.52000      0.16665   99.56372   20.00000 1.03916
44.2285	    14.68500      0.16480   99.51921   20.00000 1.03899
44.5284	    14.85000      0.16021   99.46223   20.00000 1.03882
44.8286	    15.01500      0.15293   99.40026   20.00000 1.03865
45.1298	    15.18000      0.12494   99.33513   20.00000 1.03848
45.4313	    15.34500  8.1871e-002   99.27414   20.00000 1.03831
45.7335	    15.51000  4.9625e-002   99.20655   20.00000 1.03814
46.0359	    15.67500  1.3226e-002   99.14336   20.00000 1.03797
46.3389	    15.84000 -1.9342e-002   99.06446   20.00000 1.03780
46.6418	    16.00500 -4.7026e-002   98.99108   20.00000 1.03764
46.9448	    16.17000 -6.7502e-002   98.91782   20.00000 1.03747
47.2473	    16.33500 -8.5411e-002   98.83506   20.00000 1.03730
47.5482	    16.50000     -0.10247   98.7378   20.00000 1.03713
47.8495	    16.66500     -0.11790   98.63067   20.00000 1.03697
48.152	    16.83000     -0.13217   98.51451   20.00000 1.03680
48.4546	    16.99500     -0.14619   98.40691   20.00000 1.03663
48.7576	    17.16000     -0.16060   98.27837   20.00000 1.03646
49.0605	    17.32500     -0.17528   98.15397   20.00000 1.03629
49.3651	    17.49000     -0.18961   98.0248   20.00000 1.03612
49.6701	    17.65500     -0.20296   97.89269   20.00000 1.03596
49.9737	    17.82000     -0.21735   97.75931   20.00000 1.03579
50.2769	    17.98500     -0.23178   97.60809   20.00000 1.03562
50.5802	    18.15000     -0.24510   97.44481   20.00000 1.03545
50.8816	    18.31500     -0.25959   97.29267   20.00000 1.03528
51.1834	    18.48000     -0.27392   97.13817   20.00000 1.03511
51.4851	    18.64500     -0.28897   96.97002   20.00000 1.03495
51.7871	    18.81000     -0.30312   96.79866   20.00000 1.03478
52.09	    18.97500     -0.31698   96.6293   20.00000 1.03461
52.3928	    19.14000     -0.32960   96.45281   20.00000 1.03444
52.6971	    19.30500     -0.34478   96.26865   20.00000 1.03427
53.0022	    19.47000     -0.35754   96.0849   20.00000 1.03410
53.3077	    19.63500     -0.37233   95.89873   20.00000 1.03393
53.613	    19.80000     -0.38528   95.70008   20.00000 1.03376
53.9171	    19.96500     -0.40023   95.49499   20.00000 1.03359
54.2213	    20.13000     -0.41390   95.29186   20.00000 1.03343
54.526	    20.29500     -0.42871   95.07705   20.00000 1.03326
54.8309	    20.46000     -0.44174   94.86638   20.00000 1.03309
55.1375	    20.62500     -0.45619   94.64927   20.00000 1.03292
55.4447	    20.79000     -0.46900   94.41896   20.00000 1.03275
55.7525	    20.95500     -0.48231   94.19172   20.00000 1.03258
56.0601	    21.12000     -0.49684   93.96247   20.00000 1.03241
56.3674	    21.28500     -0.51047   93.71782   20.00000 1.03224
56.6758	    21.45000     -0.52497   93.47441   20.00000 1.03207
56.9825	    21.61500     -0.53810   93.22494   20.00000 1.03190
57.2895	    21.78000     -0.55223   92.97826   20.00000 1.03173
57.5968	    21.94500     -0.56620   92.72455   20.00000 1.03156
57.9046	    22.11000     -0.57870   92.4604   20.00000 1.03139
58.2128	    22.27500     -0.59246   92.19459   20.00000 1.03122
58.5207	    22.44000     -0.60605   91.92997   20.00000 1.03104
58.8279	    22.60500     -0.61817   91.64902   20.00000 1.03087
59.1368	    22.77000     -0.63038   91.36609   20.00000 1.03070
59.445	    22.93500     -0.64395   91.08719   20.00000 1.03053
59.754	    23.10000     -0.65617   90.80198   20.00000 1.03036
60.0633	    23.26500     -0.66827   90.51957   20.00000 1.03019
60.3734	    23.43000     -0.68010   90.24297   20.00000 1.03002
60.6851	    23.59500     -0.69114   89.9304   20.00000 1.02984
60.9967	    23.76000     -0.70169   89.6367   20.00000 1.02967
61.3092	    23.92500     -0.71072   89.3335   20.00000 1.02950
61.6228	    24.09000     -0.72025   89.0233   20.00000 1.02933
61.937	    24.25500     -0.72983   88.7439   20.00000 1.02916
62.2522	    24.42000     -0.73754   88.4366   20.00000 1.02899
62.5687	    24.58500     -0.74465   88.1374   20.00000 1.02881
62.8859	    24.75000     -0.75004   87.8382   20.00000 1.02864
63.2069	    24.91500     -0.75377   87.5535   20.00000 1.02847
63.5306	    25.08000     -0.75630   87.2776   20.00000 1.02829
63.8578	    25.24500     -0.75638   87.0041   20.00000 1.02812
64.1887	    25.41000     -0.75317   86.7638   20.00000 1.02794
64.5251	    25.57500     -0.74601   86.5549   20.00000 1.02777
64.8666	    25.74000     -0.73481   86.367   20.00000 1.02759
65.212	    25.90500     -0.71834   86.202   20.00000 1.02742
65.5598	    26.07000     -0.69427   86.0566   20.00000 1.02724
65.9101	    26.23500     -0.66069   85.9178   20.00000 1.02706
66.2618	    26.40000     -0.61553   85.8058   20.00000 1.02688
66.6106	    26.56500     -0.55703   85.7068   20.00000 1.02670
66.9582	    26.73000     -0.47808   85.6465   20.00000 1.02651
67.3027	    26.89500     -0.37497   85.6115   20.00000 1.02633
67.6449	    27.06000     -0.24500   85.594   20.00000 1.02613
67.9847	    27.22500     -0.10828   85.5791   20.00000 1.02594
68.3224	    27.39000 -3.4188e-003   85.5692   20.00000 1.02575
68.6592	    27.55500  6.1262e-002   85.5511   20.00000 1.02555
68.9941	    27.72000  9.8860e-002   85.538   20.00000 1.02536
69.3278	    27.88500      0.12242   85.5313   20.00000 1.02516
69.6608	    28.05000      0.13549   85.5195   20.00000 1.02497
69.9929	    28.21500      0.14238   85.5046   20.00000 1.02478
70.3237	    28.38000      0.14819   85.4925   20.00000 1.02459
70.6531	    28.54500      0.15247   85.4848   20.00000 1.02440
70.9823	    28.71000      0.15532   85.4822   20.00000 1.02421
71.3112	    28.87500      0.15790   85.472   20.00000 1.02402
71.6394	    29.04000      0.16031   85.468   20.00000 1.02383
71.9675	    29.20500      0.16194   85.4605   20.00000 1.02365
72.2951	    29.37000      0.16314   85.4511   20.00000 1.02346
72.6223	    29.53500      0.16420   85.4435   20.00000 1.02328
72.9476	    29.70000      0.16451   85.4417   20.00000 1.02309
73.2729	    29.86500      0.16543   85.4331   20.00000 1.02291
73.5986	    30.03000      0.16480   85.4277   20.00000 1.02272
73.9228	    30.19500      0.16547   85.4205   20.00000 1.02254
74.2474	    30.36000      0.16490   85.4104   20.00000 1.02236
74.5719	    30.52500      0.16551   85.4076   20.00000 1.02217
74.898	    30.69000      0.16587   85.3983   20.00000 1.02199
75.2238	    30.85500      0.16527   85.3924   20.00000 1.02181
75.5467	    31.02000      0.16587   85.3848   20.00000 1.02163
75.8675	    31.18500      0.16530   85.3694   20.00000 1.02145
76.1881	    31.35000      0.16548   85.3633   20.00000 1.02126
76.5088	    31.51500      0.16456   85.3664   20.00000 1.02108
76.8284	    31.68000      0.16490   85.355   20.00000 1.02090
77.1468	    31.84500      0.16421   85.351   20.00000 1.02072
77.4666	    32.01000      0.16412   85.3508   20.00000 1.02054
77.7882	    32.17500      0.16343   85.3406   20.00000 1.02036
78.1086	    32.34000      0.16314   85.3307   20.00000 1.02018
78.4286	    32.50500      0.16191   85.3278   20.00000 1.02000
78.7486	    32.67000      0.16187   85.3186   20.00000 1.01982
79.069	    32.83500      0.16194   85.3161   20.00000 1.01964
79.3889	    33.00000      0.15991   85.3092   20.00000 1.01946
79.7083	    33.16500      0.16005   85.3008   20.00000 1.01929
80.0318	    33.33000      0.15825   85.2929   20.00000 1.01911
80.3556	    33.49500      0.15783   85.287   20.00000 1.01893
80.6784	    33.66000      0.15747   85.2716   20.00000 1.01875
81.0007	    33.82500      0.15668   85.2636   20.00000 1.01857
81.3243	    33.99000      0.15591   85.2564   20.00000 1.01839
81.6475	    34.15500      0.15473   85.2459   20.00000 1.01821
81.9655	    34.32000      0.15425   85.2344   20.00000 1.01804
82.2826	    34.48500      0.15327   85.2298   20.00000 1.01786
82.6011	    34.65000      0.15249   85.2183   20.00000 1.01768
82.9195	    34.81500      0.15099   85.2077   20.00000 1.01750
83.2368	    34.98000      0.15005   85.1972   20.00000 1.01732
83.5554	    35.14500      0.14941   85.1842   20.00000 1.01714
83.8757	    35.31000      0.14839   85.1769   20.00000 1.01696
84.1961	    35.47500      0.14701   85.1681   20.00000 1.01678
84.516	    35.64000      0.14653   85.1602   20.00000 1.01660
84.836	    35.80500      0.14650   85.1484   20.00000 1.01642
85.1563	    35.97000      0.14477   85.1407   20.00000 1.01624
85.4773	    36.13500      0.14362   85.1301   20.00000 1.01607
85.7978	    36.30000      0.14360   85.1172   20.00000 1.01589
86.1189	    36.46500      0.14093   85.1077   20.00000 1.01571
86.4411	    36.63000      0.14087   85.0975   20.00000 1.01553
86.7635	    36.79500      0.13952   85.0873   20.00000 1.01535
87.0857	    36.96000      0.13823   85.0815   20.00000 1.01518
87.4065	    37.12500      0.13677   85.0681   20.00000 1.01500
87.7274	    37.29000      0.13520   85.0494   20.00000 1.01482
88.0482	    37.45500      0.13423   85.0319   20.00000 1.01464
88.3688	    37.62000      0.13403   85.0137   20.00000 1.01446
88.6883	    37.78500      0.13206   85.0069   20.00000 1.01428
89.0061	    37.95000      0.13110   84.9956   20.00000 1.01410
89.3256	    38.11500      0.12913   84.9785   20.00000 1.01392
89.6452	    38.28000      0.12856   84.9585   20.00000 1.01374
89.9652	    38.44500      0.12665   84.9428   20.00000 1.01356
90.2865	    38.61000      0.12484   84.9301   20.00000 1.01339
90.6099	    38.77500      0.12395   84.9184   20.00000 1.01321
90.9349	    38.94000      0.12260   84.9053   20.00000 1.01303
91.2587	    39.10500      0.12204   84.886   20.00000 1.01285
91.5816	    39.27000      0.12016   84.8629   20.00000 1.01267
91.9031	    39.43500      0.11828   84.8504   20.00000 1.01250
92.2238	    39.60000      0.11693   84.8228   20.00000 1.01232
92.545	    39.76500      0.11475   84.798   20.00000 1.01214
92.8652	    39.93000      0.11312   84.7678   20.00000 1.01196
93.1851	    40.09500      0.11135   84.723   20.00000 1.01178
93.5049	    40.26000      0.10970   84.638   20.00000 1.01160
93.8203	    40.42500      0.10804   84.5096   20.00000 1.01142
94.1286	    40.59000      0.10511   84.2901   20.00000 1.01124
94.4218	    40.75500      0.10321   83.9426   20.00000 1.01106
94.6997	    40.92000      0.10072   83.4751   20.00000 1.01088
94.9621	    41.08500  9.7329e-002   82.861   20.00000 1.01070
95.2105	    41.25000  9.2999e-002   82.1841   20.00000 1.01052
95.4508	    41.41500  8.5914e-002   81.4847   20.00000 1.01034
95.6858	    41.58000  7.1605e-002   80.8027   20.00000 1.01017
95.9225	    41.74500  3.6861e-002   80.1154   20.00000 1.00999
96.1666	    41.91000 -8.6258e-002   79.4128   20.00000 1.00982
96.4193	    42.07500     -0.37489   78.7107   20.00000 1.00965
96.6822	    42.24000     -0.67052   78.0131   20.00000 1.00950
96.9538	    42.40500     -1.15962   77.3302   20.00000 1.00935
97.2346	    42.57000     -1.68189   76.6839   20.00000 1.00922
97.5245	    42.73500     -1.96635   76.0599   20.00000 1.00908
97.823	    42.90000     -2.12812   75.5251   20.00000 1.00895
98.1297	    43.06500     -2.22187   75.021   20.00000 1.00882
98.4444	    43.23000     -2.27153   74.5568   20.00000 1.00868
98.767	    43.39500     -2.28558   74.1144   20.00000 1.00854
99.0957	    43.56000     -2.26684   73.7136   20.00000 1.00840
99.4303	    43.72500     -2.22078   73.3485   20.00000 1.00824
99.7686	    43.89000     -2.14854   73.0151   20.00000 1.00809
100.112	    44.05500     -2.05583   72.7166   20.00000 1.00793
100.458	    44.22000     -1.94809   72.4622   20.00000 1.00776
100.808	    44.38500     -1.83063   72.2438   20.00000 1.00759
101.161	    44.55000     -1.70885   72.0662   20.00000 1.00741
101.519	    44.71500     -1.58708   71.9219   20.00000 1.00723
101.877	    44.88000     -1.46424   71.8143   20.00000 1.00705
102.236	    45.04500     -1.34120   71.7309   20.00000 1.00687
102.597	    45.21000     -1.21709   71.665   20.00000 1.00668
102.959	    45.37500     -1.09212   71.6123   20.00000 1.00649
103.32	    45.54000     -0.96662   71.5704   20.00000 1.00629
103.682	    45.70500     -0.84094   71.5312   20.00000 1.00610
104.044	    45.87000     -0.71331   71.503   20.00000 1.00590
104.405	    46.03500     -0.58492   71.4743   20.00000 1.00570
104.765	    46.20000     -0.45728   71.4473   20.00000 1.00550
105.122	    46.36500     -0.33544   71.4296   20.00000 1.00530
105.477	    46.53000     -0.22585   71.4148   20.00000 1.00510
105.828	    46.69500     -0.13450   71.4005   20.00000 1.00490
106.176	    46.86000 -6.6818e-002   71.3871   20.00000 1.00470
106.524	    47.02500 -1.6040e-002   71.3779   20.00000 1.00450
106.869	    47.19000  1.9538e-002   71.3769   20.00000 1.00430
107.213	    47.35500  4.6560e-002   71.3605   20.00000 1.00410
107.555	    47.52000  6.6330e-002   71.3505   20.00000 1.00390
107.898	    47.68500  8.3637e-002   71.3438   20.00000 1.00370
108.239	    47.85000      0.10033   71.3394   20.00000 1.00350
108.578	    48.01500      0.11548   71.3347   20.00000 1.00330
108.918	    48.18000      0.12690   71.3314   20.00000 1.00311
109.256	    48.34500      0.13674   71.3263   20.00000 1.00292
109.594	    48.51000      0.14399   71.3215   20.00000 1.00273
109.932	    48.67500      0.14845   71.3187   20.00000 1.00253
110.268	    48.84000      0.15249   71.3083   20.00000 1.00234
110.603	    49.00500      0.15480   71.3056   20.00000 1.00215
110.937	    49.17000      0.15757   71.3   20.00000 1.00196
111.271	    49.33500      0.15918   71.2909   20.00000 1.00177
111.603	    49.50000      0.16050   71.2884   20.00000 1.00159
111.935	    49.66500      0.16219   71.2884   20.00000 1.00140
112.266	    49.83000      0.16382   71.2852   20.00000 1.00121
112.597	    49.99500      0.16408   71.2794   20.00000 1.00102
112.927	    50.16000      0.16451   71.2733   20.00000 1.00083
113.256	    50.32500      0.16509   71.2665   20.00000 1.00065
113.584	    50.49000      0.16558   71.2635   20.00000 1.00046
113.912	    50.65500      0.16626   71.2685   20.00000 1.00028
114.24	    50.82000      0.16685   71.2661   20.00000 1.00009
114.568	    50.98500      0.16698   71.2561   20.00000 0.99991
114.895	    51.15000      0.16724   71.2507   20.00000 0.99972
115.222	    51.31500      0.16788   71.2526   20.00000 0.99954
115.549	    51.48000      0.16802   71.2484   20.00000 0.99936
115.875	    51.64500      0.16883   71.2481   20.00000 0.99917
116.201	    51.81000      0.16871   71.2456   20.00000 0.99899
116.527	    51.97500      0.16861   71.239   20.00000 0.99881
116.853	    52.14000      0.16871   71.2318   20.00000 0.99863
117.178	    52.30500      0.16942   71.2296   20.00000 0.99845
117.502	    52.47000      0.16959   71.2261   20.00000 0.99826
117.826	    52.63500      0.16937   71.2264   20.00000 0.99808
118.15	    52.80000      0.16880   71.2214   20.00000 0.99790
118.474	    52.96500      0.16911   71.2166   20.00000 0.99772
118.797	    53.13000      0.16939   71.2155   20.00000 0.99754
119.123	    53.29500      0.16924   71.2102   20.00000 0.99736
119.45	    53.46000      0.16978   71.2064   20.00000 0.99718
119.776	    53.62500      0.16907   71.2081   20.00000 0.99700
120.103	    53.79000      0.16871   71.2053   20.00000 0.99682
120.428	    53.95500      0.16927   71.2073   20.00000 0.99664
120.754	    54.12000      0.16959   71.2139   20.00000 0.99646
121.08	    54.28500      0.16910   71.2087   20.00000 0.99628
121.407	    54.45000      0.16929   71.2036   20.00000 0.99610
121.733	    54.61500      0.16910   71.1945   20.00000 0.99592
122.061	    54.78000      0.16900   71.1904   20.00000 0.99573
122.389	    54.94500      0.16884   71.19   20.00000 0.99555
122.717	    55.11000      0.16822   71.189   20.00000 0.99537
123.045	    55.27500      0.16858   71.1975   20.00000 0.99519
123.373	    55.44000      0.16832   71.1767   20.00000 0.99501
123.702	    55.60500      0.16801   71.1693   20.00000 0.99483
124.028	    55.77000      0.16812   71.1736   20.00000 0.99465
124.356	    55.93500      0.16828   71.175   20.00000 0.99447
124.683	    56.10000      0.16851   71.18   20.00000 0.99429
125.009	    56.26500      0.16877   71.1739   20.00000 0.99410
125.334	    56.43000      0.16802   71.1636   20.00000 0.99392
125.658	    56.59500      0.16832   71.1633   20.00000 0.99374
125.982	    56.76000      0.16832   71.159   20.00000 0.99356
126.307	    56.92500      0.16792   71.158   20.00000 0.99338
126.631	    57.09000      0.16832   71.1587   20.00000 0.99319
126.955	    57.25500      0.16822   71.1543   20.00000 0.99301
127.28	    57.42000      0.16910   71.1518   20.00000 0.99283
127.605	    57.58500      0.16803   71.1518   20.00000 0.99265
127.929	    57.75000      0.16851   71.1475   20.00000 0.99247
128.254	    57.91500      0.16771   71.1484   20.00000 0.99229
128.58	    58.08000      0.16792   71.1493   20.00000 0.99211
128.906	    58.24500      0.16769   71.1429   20.00000 0.99193
129.232	    58.41000      0.16753   71.1402   20.00000 0.99175
129.559	    58.57500      0.16736   71.1388   20.00000 0.99157
129.886	    58.74000      0.16773   71.1344   20.00000 0.99139
130.213	    58.90500      0.16744   71.1274   20.00000 0.99121
130.539	    59.07000      0.16802   71.1231   20.00000 0.99103
130.865	    59.23500      0.16768   71.1271   20.00000 0.99085
131.191	    59.40000      0.16753   71.1284   20.00000 0.99067
131.516	    59.56500      0.16711   71.1222   20.00000 0.99049
131.841	    59.73000      0.16724   71.119   20.00000 0.99031
132.165	    59.89500      0.16690   71.1153   20.00000 0.99013
132.491	    60.06000      0.16714   71.113   20.00000 0.98995
132.816	    60.22500      0.16659   71.1049   20.00000 0.98977
133.141	    60.39000      0.16734   71.1049   20.00000 0.98959
133.466	    60.55500      0.16688   71.1063   20.00000 0.98941
133.791	    60.72000      0.16695   71.1111   20.00000 0.98923
134.116	    60.88500      0.16760   71.0991   20.00000 0.98905
134.44	    61.05000      0.16714   71.0956   20.00000 0.98887
134.765	    61.21500      0.16678   71.0952   20.00000 0.98869
135.091	    61.38000      0.16724   71.0961   20.00000 0.98851
135.416	    61.54500      0.16705   71.0909   20.00000 0.98833
135.743	    61.71000      0.16675   71.0933   20.00000 0.98815
136.069	    61.87500      0.16659   71.0948   20.00000 0.98797
136.395	    62.04000      0.16685   71.0866   20.00000 0.98779
136.721	    62.20500      0.16666   71.0812   20.00000 0.98761
137.046	    62.37000      0.16646   71.0801   20.00000 0.98743
137.37	    62.53500      0.16673   71.0775   20.00000 0.98725
137.694	    62.70000      0.16665   71.0753   20.00000 0.98707
138.016	    62.86500      0.16547   71.0755   20.00000 0.98689
138.338	    63.03000      0.16626   71.0771   20.00000 0.98671
138.664	    63.19500      0.16636   71.0724   20.00000 0.98653
138.989	    63.36000      0.16597   71.0713   20.00000 0.98635
139.315	    63.52500      0.16620   71.0728   20.00000 0.98617
139.643	    63.69000      0.16656   71.0713   20.00000 0.98599
139.972	    63.85500      0.16638   71.0689   20.00000 0.98581
140.301	    64.02000      0.16626   71.0628   20.00000 0.98563
140.628	    64.18500      0.16566   71.0576   20.00000 0.98545
140.954	    64.35000      0.16558   71.0593   20.00000 0.98527
141.28	    64.51500      0.16488   71.0613   20.00000 0.98509
141.606	    64.68000      0.16548   71.056   20.00000 0.98491
141.932	    64.84500      0.16572   71.0524   20.00000 0.98473
142.258	    65.01000      0.16558   71.0532   20.00000 0.98455
142.584	    65.17500      0.16503   71.0477   20.00000 0.98437
142.909	    65.34000      0.16509   71.0402   20.00000 0.98419
143.237	    65.50500      0.16547   71.0403   20.00000 0.98401
143.563	    65.67000      0.16499   71.0358   20.00000 0.98383
143.888	    65.83500      0.16486   71.0326   20.00000 0.98365
144.214	    66.00000      0.16451   71.0298   20.00000 0.98347
144.54	    66.16500      0.16511   71.0275   20.00000 0.98329
144.867	    66.33000      0.16509   71.0319   20.00000 0.98311
145.193	    66.49500      0.16443   71.0264   20.00000 0.98293
145.517	    66.66000      0.16451   71.0216   20.00000 0.98275
145.842	    66.82500      0.16504   71.0257   20.00000 0.98257
146.166	    66.99000      0.16431   71.0163   20.00000 0.98239
146.491	    67.15500      0.16444   71.0161   20.00000 0.98221
146.816	    67.32000      0.16519   71.0092   20.00000 0.98203
147.141	    67.48500      0.16476   71.0048   20.00000 0.98185
147.467	    67.65000      0.16470   71.0108   20.00000 0.98167
147.793	    67.81500      0.16451   71.0027   20.00000 0.98149
148.12	    67.98000      0.16499   70.9947   20.00000 0.98131
148.446	    68.14500      0.16456   70.9911   20.00000 0.98113
148.769	    68.31000      0.16441   70.9912   20.00000 0.98095
149.093	    68.47500      0.16446   70.991   20.00000 0.98077
149.419	    68.64000      0.16412   70.9892   20.00000 0.98060
149.743	    68.80500      0.16382   70.9848   20.00000 0.98042
150.069	    68.97000      0.16431   70.9844   20.00000 0.98024
150.397	    69.13500      0.16411   70.9852   20.00000 0.98006
150.725	    69.30000      0.16421   70.9848   20.00000 0.97988
151.054	    69.46500      0.16378   70.9812   20.00000 0.97970
151.383	    69.63000      0.16353   70.9792   20.00000 0.97952
151.712	    69.79500      0.16396   70.9807   20.00000 0.97934
152.04	    69.96000      0.16431   70.9728   20.00000 0.97916
152.366	    70.12500      0.16405   70.9727   20.00000 0.97898
152.694	    70.29000      0.16343   70.9673   20.00000 0.97880
153.021	    70.45500      0.16314   70.9695   20.00000 0.97862
153.349	    70.62000      0.16265   70.9624   20.00000 0.97844
153.677	    70.78500      0.16331   70.9542   20.00000 0.97826
154.005	    70.95000      0.16333   70.9577   20.00000 0.97808
154.333	    71.11500      0.16311   70.9591   20.00000 0.97790
154.66	    71.28000      0.16304   70.9527   20.00000 0.97772
154.988	    71.44500      0.16300   70.9539   20.00000 0.97754
155.316	    71.61000      0.16294   70.954   20.00000 0.97736
155.643	    71.77500      0.16280   70.9521   20.00000 0.97718
155.971	    71.94000      0.16343   70.9511   20.00000 0.97700
156.3	    72.10500      0.16284   70.9528   20.00000 0.97682
156.626	    72.27000      0.16275   70.9472   20.00000 0.97664
156.952	    72.43500      0.16262   70.9415   20.00000 0.97646
157.279	    72.60000      0.16304   70.9346   20.00000 0.97628
157.605	    72.76500      0.16295   70.9302   20.00000 0.97610
157.932	    72.93000      0.16245   70.9293   20.00000 0.97592
158.259	    73.09500      0.16312   70.9267   20.00000 0.97574
158.587	    73.26000      0.16255   70.9224   20.00000 0.97556
158.915	    73.42500      0.16317   70.9188   20.00000 0.97538
159.243	    73.59000      0.16197   70.9198   20.00000 0.97520
159.57	    73.75500      0.16259   70.9173   20.00000 0.97502
159.897	    73.92000      0.16265   70.9125   20.00000 0.97484
160.223	    74.08500      0.16278   70.9066   20.00000 0.97466
160.549	    74.25000      0.16216   70.9021   20.00000 0.97448
160.876	    74.41500      0.16263   70.8988   20.00000 0.97430
161.206	    74.58000      0.16177   70.9019   20.00000 0.97412
161.535	    74.74500      0.16218   70.8977   20.00000 0.97394
161.863	    74.91000      0.16128   70.8971   20.00000 0.97376
162.193	    75.07500      0.16141   70.8957   20.00000 0.97358
162.523	    75.24000      0.16197   70.8954   20.00000 0.97340
162.853	    75.40500      0.16131   70.8902   20.00000 0.97323
163.179	    75.57000      0.16206   70.8837   20.00000 0.97305
163.506	    75.73500      0.16121   70.8849   20.00000 0.97287
163.834	    75.90000      0.16138   70.8772   20.00000 0.97269
164.162	    76.06500      0.16099   70.8693   20.00000 0.97251
164.489	    76.23000      0.16060   70.8704   20.00000 0.97233
164.817	    76.39500      0.16091   70.87   20.00000 0.97215
165.146	    76.56000      0.16050   70.8686   20.00000 0.97196
165.474	    76.72500      0.15979   70.8599   20.00000 0.97178
165.803	    76.89000      0.16031   70.8651   20.00000 0.97160
166.131	    77.05500      0.15971   70.86   20.00000 0.97143
166.459	    77.22000      0.15991   70.8597   20.00000 0.97125
166.788	    77.38500      0.15954   70.8598   20.00000 0.97107
167.116	    77.55000      0.15933   70.8564   20.00000 0.97089
167.444	    77.71500      0.15943   70.8527   20.00000 0.97071
167.772	    77.88000      0.15962   70.8505   20.00000 0.97053
168.099	    78.04500      0.15938   70.8427   20.00000 0.97035
168.426	    78.21000      0.15913   70.8395   20.00000 0.97017
168.753	    78.37500      0.15956   70.8365   20.00000 0.96999
169.081	    78.54000      0.15952   70.8303   20.00000 0.96981
169.408	    78.70500      0.15949   70.8246   20.00000 0.96963
169.736	    78.87000      0.16001   70.8148   20.00000 0.96945
170.064	    79.03500      0.15896   70.8151   20.00000 0.96927
170.393	    79.20000      0.15884   70.8172   20.00000 0.96909
170.72	    79.36500      0.15855   70.8122   20.00000 0.96891
171.045	    79.53000      0.15884   70.8085   20.00000 0.96873
171.372	    79.69500      0.15888   70.8056   20.00000 0.96855
171.699	    79.86000      0.15777   70.8018   20.00000 0.96838
172.026	    80.02500      0.15898   70.8007   20.00000 0.96820
172.353	    80.19000      0.15825   70.8018   20.00000 0.96802
172.68	    80.35500      0.15847   70.7971   20.00000 0.96784
173.008	    80.52000      0.15747   70.7894   20.00000 0.96766
173.336	    80.68500      0.15781   70.7863   20.00000 0.96748
173.663	    80.85000      0.15718   70.7843   20.00000 0.96730
173.989	    81.01500      0.15735   70.78   20.00000 0.96712
174.314	    81.18000      0.15698   70.768   20.00000 0.96695
174.64	    81.34500      0.15708   70.7649   20.00000 0.96677
174.967	    81.51000      0.15708   70.7627   20.00000 0.96659
175.292	    81.67500      0.15695   70.7512   20.00000 0.96641
175.618	    81.84000      0.15640   70.7402   20.00000 0.96623
175.944	    82.00500      0.15661   70.7278   20.00000 0.96605
176.27	    82.17000      0.15620   70.7234   20.00000 0.96587
176.596	    82.33500      0.15561   70.7169   20.00000 0.96570
176.923	    82.50000      0.15571   70.7062   20.00000 0.96552
177.25	    82.66500      0.15522   70.694   20.00000 0.96534
177.576	    82.83000      0.15562   70.6848   20.00000 0.96516
177.902	    82.99500      0.15452   70.6768   20.00000 0.96499
178.228	    83.16000      0.15523   70.66   20.00000 0.96481
178.554	    83.32500      0.15368   70.6474   20.00000 0.96463
178.881	    83.49000      0.15298   70.6341   20.00000 0.96445
179.208	    83.65500      0.15233   70.6146   20.00000 0.96428
179.536	    83.82000      0.15093   70.6013   20.00000 0.96410
179.863	    83.98500      0.15061   70.581   20.00000 0.96392
180.19	    84.15000      0.14809   70.5571   20.00000 0.96374
180.518	    84.31500      0.14615   70.5376   20.00000 0.96356
180.845	    84.48000      0.14516   70.5084   20.00000 0.96339
181.172	    84.64500      0.14298   70.4871   20.00000 0.96321
181.498	    84.81000      0.14057   70.4716   20.00000 0.96303
181.826	    84.97500      0.13774   70.446   20.00000 0.96285
182.154	    85.14000      0.13422   70.4215   20.00000 0.96268
182.481	    85.30500      0.13124   70.3969   20.00000 0.96250
182.807	    85.47000      0.12729   70.368   20.00000 0.96232
183.134	    85.63500      0.12360   70.3352   20.00000 0.96214
183.461	    85.80000      0.11928   70.3079   20.00000 0.96196
183.787	    85.96500      0.11511   70.2892   20.00000 0.96179
184.112	    86.13000      0.11009   70.2593   20.00000 0.96161
184.437	    86.29500      0.10546   70.2268   20.00000 0.96143
184.761	    86.46000      0.10072   70.1906   20.00000 0.96125
185.086	    86.62500  9.5673e-002   70.1536   20.00000 0.96107
185.412	    86.79000  9.1436e-002   70.124   20.00000 0.96090
185.74	    86.95500  8.5998e-002   70.0862   20.00000 0.96072
186.068	    87.12000  8.1765e-002   70.0461   20.00000 0.96054
186.397	    87.28500  7.6746e-002   70.0101   20.00000 0.96037
186.726	    87.45000  7.1312e-002   69.9714   20.00000 0.96019
187.054	    87.61500  6.6854e-002   69.9374   20.00000 0.96001
187.381	    87.78000  6.2422e-002   69.898   20.00000 0.95984
187.706	    87.94500  5.7454e-002   69.8524   20.00000 0.95966
188.031	    88.11000  5.2947e-002   69.8138   20.00000 0.95948
188.357	    88.27500  4.8333e-002   69.7817   20.00000 0.95931
188.682	    88.44000  4.3276e-002   69.7336   20.00000 0.95913
189.009	    88.60500  3.9113e-002   69.6926   20.00000 0.95895
189.334	    88.77000  3.5558e-002   69.65   20.00000 0.95877
189.661	    88.93500  3.1440e-002   69.6088   20.00000 0.95859
189.988	    89.10000  2.7059e-002   69.5627   20.00000 0.95842
190.315	    89.26500  2.3227e-002   69.5162   20.00000 0.95824
190.643	    89.43000  1.8463e-002   69.4759   20.00000 0.95806
190.97	    89.59500  1.5427e-002   69.4233   20.00000 0.95789
191.297	    89.76000  1.1332e-002   69.3778   20.00000 0.95771
191.625	    89.92500  7.0543e-003   69.3223   20.00000 0.95753
191.952	    90.09000  4.2007e-003   69.2712   20.00000 0.95736
192.279	    90.25500  1.6552e-004   69.2197   20.00000 0.95718
192.605	    90.42000 -3.0283e-003   69.167   20.00000 0.95700
192.93	    90.58500 -6.5859e-003   69.1175   20.00000 0.95683
193.256	    90.75000 -1.0160e-002   69.0589   20.00000 0.95665
193.581	    90.91500 -1.3346e-002   69.0101   20.00000 0.95647
193.907	    91.08000 -1.7193e-002   68.9575   20.00000 0.95630
194.232	    91.24500 -2.0675e-002   68.9013   20.00000 0.95612
194.557	    91.41000 -2.3933e-002   68.8464   20.00000 0.95594
194.886	    91.57500 -2.6670e-002   68.7908   20.00000 0.95577
195.213	    91.74000 -3.0088e-002   68.7338   20.00000 0.95559
195.54	    91.90500 -3.3303e-002   68.6758   20.00000 0.95541
195.868	    92.07000 -3.6633e-002   68.6211   20.00000 0.95524
196.197	    92.23500 -3.9899e-002   68.5644   20.00000 0.95506
196.526	    92.40000 -4.2689e-002   68.5044   20.00000 0.95489
196.854	    92.56500 -4.5231e-002   68.4436   20.00000 0.95471
197.182	    92.73000 -4.8453e-002   68.3857   20.00000 0.95453
197.51	    92.89500 -5.0662e-002   68.3218   20.00000 0.95436
197.838	    93.06000 -5.3044e-002   68.2675   20.00000 0.95418
198.167	    93.22500 -5.6018e-002   68.2066   20.00000 0.95400
198.496	    93.39000 -5.8613e-002   68.1426   20.00000 0.95383
198.824	    93.55500 -6.1421e-002   68.0798   20.00000 0.95365
199.152	    93.72000 -6.3888e-002   68.0122   20.00000 0.95347
199.48	    93.88500 -6.6492e-002   67.9511   20.00000 0.95330
199.809	    94.05000 -6.8381e-002   67.8881   20.00000 0.95312
200.137	    94.21500 -7.0648e-002   67.8274   20.00000 0.95294
200.466	    94.38000 -7.2679e-002   67.758   20.00000 0.95276
200.796	    94.54500 -7.4922e-002   67.6932   20.00000 0.95259
201.126	    94.71000 -7.6489e-002   67.6404   20.00000 0.95241
201.456	    94.87500 -7.8341e-002   67.578   20.00000 0.95223
201.786	    95.04000 -8.0006e-002   67.4962   20.00000 0.95206
202.115	    95.20500 -8.2177e-002   67.4455   20.00000 0.95188
202.444	    95.37000 -8.3718e-002   67.385   20.00000 0.95170
202.772	    95.53500 -8.5568e-002   67.3177   20.00000 0.95153
203.1	    95.70000 -8.6551e-002   67.2567   20.00000 0.95135
203.428	    95.86500 -8.8147e-002   67.1837   20.00000 0.95117
203.757	    96.03000 -9.0068e-002   67.1234   20.00000 0.95099
204.085	    96.19500 -9.0185e-002   67.0621   20.00000 0.95082
204.414	    96.36000 -9.1142e-002   67.0032   20.00000 0.95064
204.741	    96.52500 -9.2225e-002   66.9287   20.00000 0.95046
205.069	    96.69000 -9.2999e-002   66.8635   20.00000 0.95029
205.397	    96.85500 -9.3844e-002   66.8021   20.00000 0.95011
205.725	    97.02000 -9.4464e-002   66.7376   20.00000 0.94993
206.053	    97.18500 -9.4307e-002   66.6793   20.00000 0.94976
206.381	    97.35000 -9.5538e-002   66.6248   20.00000 0.94958
206.708	    97.51500 -9.5739e-002   66.5591   20.00000 0.94940
207.038	    97.68000 -9.6320e-002   66.5075   20.00000 0.94923
207.366	    97.84500 -9.5647e-002   66.4484   20.00000 0.94905
207.693	    98.01000 -9.5050e-002   66.3816   20.00000 0.94888
208.019	    98.17500 -9.4872e-002   66.3185   20.00000 0.94870
208.347	    98.34000 -9.4366e-002   66.2611   20.00000 0.94852
208.677	    98.50500 -9.4416e-002   66.2002   20.00000 0.94835
209.005	    98.67000 -9.3096e-002   66.1398   20.00000 0.94817
209.333	    98.83500 -9.3338e-002   66.0823   20.00000 0.94800
209.663	    99.00000 -9.2119e-002   66.0354   20.00000 0.94782
209.995	    99.16500 -9.1418e-002   65.9805   20.00000 0.94764
210.323	    99.33000 -9.0361e-002   65.9187   20.00000 0.94747
210.652	    99.49500 -8.9667e-002   65.8635   20.00000 0.94729
210.98	    99.66000 -8.8700e-002   65.8226   20.00000 0.94712
211.308	    99.82500 -8.7067e-002   65.7668   20.00000 0.94694
211.637	    99.99000 -8.5867e-002   65.7066   20.00000 0.94677
211.965	   100.15500 -8.4795e-002   65.6414   20.00000 0.94659
212.294	   100.32000 -8.3034e-002   65.5904   20.00000 0.94641
212.623	   100.48500 -8.0878e-002   65.5558   20.00000 0.94624
212.953	   100.65000 -7.9615e-002   65.507   20.00000 0.94606
213.281	   100.81500 -7.8043e-002   65.4587   20.00000 0.94588
213.61	   100.98000 -7.6196e-002   65.4088   20.00000 0.94571
213.94	   101.14500 -7.4150e-002   65.3577   20.00000 0.94553
214.269	   101.31000 -7.2777e-002   65.3124   20.00000 0.94536
214.6	   101.47500 -7.0668e-002   65.2796   20.00000 0.94518
214.93	   101.64000 -6.8870e-002   65.2298   20.00000 0.94501
215.261	   101.80500 -6.6327e-002   65.1865   20.00000 0.94483
215.591	   101.97000 -6.4865e-002   65.1414   20.00000 0.94465
215.923	   102.13500 -6.2027e-002   65.0932   20.00000 0.94448
216.254	   102.30000 -6.1153e-002   65.05   20.00000 0.94430
216.584	   102.46500 -5.8845e-002   65.0149   20.00000 0.94413
216.913	   102.63000 -5.6170e-002   64.9882   20.00000 0.94395
217.242	   102.79500 -5.4412e-002   64.9375   20.00000 0.94377
217.571	   102.96000 -5.1579e-002   64.8938   20.00000 0.94360
217.9	   103.12500 -4.9322e-002   64.8628   20.00000 0.94342
218.228	   103.29000 -4.7672e-002   64.8264   20.00000 0.94324
218.556	   103.45500 -4.4992e-002   64.7928   20.00000 0.94307
218.886	   103.62000 -4.2885e-002   64.7599   20.00000 0.94289
219.215	   103.78500 -4.0193e-002   64.7305   20.00000 0.94272
219.543	   103.95000 -3.7707e-002   64.69   20.00000 0.94254
219.872	   104.11500 -3.4701e-002   64.6594   20.00000 0.94236
220.201	   104.28000 -3.2335e-002   64.6301   20.00000 0.94219
220.53	   104.44500 -2.9337e-002   64.589   20.00000 0.94201
220.858	   104.61000 -2.6180e-002   64.5569   20.00000 0.94184
221.188	   104.77500 -2.4033e-002   64.5318   20.00000 0.94166
221.517	   104.94000 -2.0905e-002   64.5034   20.00000 0.94149
221.847	   105.10500 -1.8463e-002   64.4732   20.00000 0.94131
222.177	   105.27000 -1.4458e-002   64.4486   20.00000 0.94114
222.507	   105.43500 -1.2608e-002   64.4264   20.00000 0.94096
222.838	   105.60000 -8.7919e-003   64.4009   20.00000 0.94079
223.167	   105.76500 -5.9762e-003   64.3645   20.00000 0.94061
223.497	   105.93000 -3.4191e-003   64.3425   20.00000 0.94044
223.824	   106.09500 -2.3922e-004   64.3218   20.00000 0.94027
224.152	   106.26000  2.6375e-003   64.2925   20.00000 0.94009
224.479	   106.42500  6.2919e-003   64.2677   20.00000 0.93991
224.805	   106.59000  9.4757e-003   64.2451   20.00000 0.93974
225.133	   106.75500  1.1609e-002   64.2274   20.00000 0.93956
225.46	   106.92000  1.4653e-002   64.2113   20.00000 0.93939
225.79	   107.08500  1.8722e-002   64.1781   20.00000 0.93921
226.119	   107.25000  2.1101e-002   64.1547   20.00000 0.93904
226.449	   107.41500  2.5519e-002   64.141   20.00000 0.93887
226.782	   107.58000  2.8134e-002   64.1268   20.00000 0.93869
227.115	   107.74500  3.1188e-002   64.1046   20.00000 0.93852
227.448	   107.91000  3.5167e-002   64.0856   20.00000 0.93834
227.78	   108.07500  3.7899e-002   64.0693   20.00000 0.93817
228.112	   108.24000  4.1517e-002   64.0521   20.00000 0.93800
228.445	   108.40500  4.5310e-002   64.0378   20.00000 0.93782
228.775	   108.57000  4.7378e-002   64.0301   20.00000 0.93765
229.105	   108.73500  5.0602e-002   64.0123   20.00000 0.93747
229.434	   108.90000  5.4314e-002   63.9893   20.00000 0.93730
229.763	   109.06500  5.8147e-002   63.9759   20.00000 0.93712
230.092	   109.23000  6.0762e-002   63.9622   20.00000 0.93694
230.421	   109.39500  6.3937e-002   63.9516   20.00000 0.93677
230.75	   109.56000  6.7600e-002   63.9449   20.00000 0.93659
231.079	   109.72500  7.1196e-002   63.9318   20.00000 0.93642
231.409	   109.89000  7.3363e-002   63.9111   20.00000 0.93624
231.737	   110.05500  7.7427e-002   63.902   20.00000 0.93607
232.066	   110.22000  8.0494e-002   63.9021   20.00000 0.93589
232.397	   110.38500  8.2840e-002   63.8879   20.00000 0.93572
232.727	   110.55000  8.6844e-002   63.8763   20.00000 0.93555
233.057	   110.71500  8.8665e-002   63.8672   20.00000 0.93537
233.388	   110.88000  9.2217e-002   63.8562   20.00000 0.93520
233.719	   111.04500  9.5948e-002   63.8432   20.00000 0.93503
234.048	   111.21000  9.8567e-002   63.8372   20.00000 0.93485
234.377	   111.37500      0.10168   63.8285   20.00000 0.93468
234.706	   111.54000      0.10384   63.8208   20.00000 0.93450
235.035	   111.70500      0.10699   63.8145   20.00000 0.93433
235.364	   111.87000      0.10980   63.8073   20.00000 0.93416
235.693	   112.03500      0.11289   63.8017   20.00000 0.93398
236.022	   112.20000      0.11566   63.7898   20.00000 0.93381
236.35	   112.36500      0.11863   63.7882   20.00000 0.93363
236.679	   112.53000      0.12064   63.7851   20.00000 0.93346
237.007	   112.69500      0.12300   63.7813   20.00000 0.93329
237.335	   112.86000      0.12533   63.7825   20.00000 0.93311
237.664	   113.02500      0.12826   63.7794   20.00000 0.93294
237.993	   113.19000      0.13051   63.7757   20.00000 0.93277
238.322	   113.35500      0.13200   63.7695   20.00000 0.93259
238.652	   113.52000      0.13481   63.7619   20.00000 0.93242
238.982	   113.68500      0.13668   63.7584   20.00000 0.93225
239.312	   113.85000      0.13842   63.7539   20.00000 0.93207
239.641	   114.01500      0.14101   63.7504   20.00000 0.93190
239.971	   114.18000      0.14253   63.7504   20.00000 0.93173
240.301	   114.34500      0.14398   63.7509   20.00000 0.93156
240.63	   114.51000      0.14507   63.7468   20.00000 0.93138
240.958	   114.67500      0.14688   63.7413   20.00000 0.93121
241.286	   114.84000      0.14839   63.7392   20.00000 0.93104
241.615	   115.00500      0.14972   63.743   20.00000 0.93086
241.943	   115.17000      0.15112   63.7401   20.00000 0.93069
242.272	   115.33500      0.15259   63.7372   20.00000 0.93052
242.602	   115.50000      0.15356   63.7406   20.00000 0.93035
242.933	   115.66500      0.15435   63.7407   20.00000 0.93017
243.263	   115.83000      0.15532   63.7347   20.00000 0.93000
243.593	   115.99500      0.15639   63.7361   20.00000 0.92983
243.923	   116.16000      0.15728   63.7345   20.00000 0.92966
244.253	   116.32500      0.15807   63.735   20.00000 0.92948
244.581	   116.49000      0.15894   63.73   20.00000 0.92931
244.911	   116.65500      0.16040   63.7295   20.00000 0.92914
245.24	   116.82000      0.16040   63.7202   20.00000 0.92897
245.571	   116.98500      0.16117   63.7114   20.00000 0.92879
245.901	   117.15000      0.16118   63.7067   20.00000 0.92862
246.231	   117.31500      0.16249   63.7088   20.00000 0.92845
246.561	   117.48000      0.16226   63.711   20.00000 0.92827
246.891	   117.64500      0.16282   63.7156   20.00000 0.92810
247.221	   117.81000      0.16255   63.7143   20.00000 0.92793
247.55	   117.97500      0.16312   63.7124   20.00000 0.92776
247.879	   118.14000      0.16382   63.712   20.00000 0.92759
248.207	   118.30500      0.16399   63.7087   20.00000 0.92741
248.534	   118.47000      0.16460   63.7044   20.00000 0.92724
248.862	   118.63500      0.16400   63.7064   20.00000 0.92707
249.19	   118.80000      0.16519   63.7095   20.00000 0.92690
249.517	   118.96500      0.16542   63.7065   20.00000 0.92672
249.845	   119.13000      0.16558   63.7092   20.00000 0.92655
250.174	   119.29500      0.16605   63.7106   20.00000 0.92638
250.502	   119.46000      0.16597   63.7067   20.00000 0.92621
250.83	   119.62500      0.16680   63.7097   20.00000 0.92604
251.158	   119.79000      0.16656   63.7141   20.00000 0.92587
251.485	   119.95500      0.16616   63.7124   20.00000 0.92570
251.813	   120.12000      0.16724   63.7119   20.00000 0.92553
252.138	   120.28500      0.16718   63.7061   20.00000 0.92535
252.465	   120.45000      0.16714   63.7065   20.00000 0.92518
252.792	   120.61500      0.16746   63.7014   20.00000 0.92501
253.12	   120.78000      0.16744   63.7035   20.00000 0.92484
253.448	   120.94500      0.16737   63.7062   20.00000 0.92467
253.776	   121.11000      0.16783   63.7076   20.00000 0.92450
254.103	   121.27500      0.16828   63.7065   20.00000 0.92433
254.431	   121.44000      0.16841   63.7047   20.00000 0.92416
254.76	   121.60500      0.16879   63.7069   20.00000 0.92399
255.088	   121.77000      0.16880   63.6988   20.00000 0.92382
255.417	   121.93500      0.16945   63.6963   20.00000 0.92365
255.746	   122.10000      0.16929   63.6941   20.00000 0.92348
256.076	   122.26500      0.16856   63.6899   20.00000 0.92331
256.405	   122.43000      0.16910   63.697   20.00000 0.92314
256.731	   122.59500      0.16931   63.694   20.00000 0.92297
257.059	   122.76000      0.16851   63.7021   20.00000 0.92280
257.386	   122.92500      0.16926   63.6849   20.00000 0.92263
257.713	   123.09000      0.16978   63.6825   20.00000 0.92246
258.041	   123.25500      0.17018   63.6891   20.00000 0.92229
258.368	   123.42000      0.16949   63.687   20.00000 0.92212
258.697	   123.58500      0.17022   63.6889   20.00000 0.92195
259.026	   123.75000      0.16919   63.6807   20.00000 0.92178
259.356	   123.91500      0.17000   63.6888   20.00000 0.92161
259.686	   124.08000      0.16939   63.6871   20.00000 0.92144
260.015	   124.24500      0.16975   63.6816   20.00000 0.92127
260.345	   124.41000      0.16959   63.6835   20.00000 0.92110
260.673	   124.57500      0.17019   63.6889   20.00000 0.92093
261.002	   124.74000      0.17017   63.6894   20.00000 0.92076
261.33	   124.90500      0.17002   63.6833   20.00000 0.92059
261.657	   125.07000      0.17056   63.6812   20.00000 0.92042
261.985	   125.23500      0.17032   63.682   20.00000 0.92025
262.313	   125.40000      0.17017   63.6807   20.00000 0.92008
262.642	   125.56500      0.17003   63.6833   20.00000 0.91991
262.97	   125.73000      0.17066   63.6838   20.00000 0.91974
263.298	   125.89500      0.17002   63.6758   20.00000 0.91957
263.627	   126.06000      0.17046   63.6788   20.00000 0.91940
263.956	   126.22500      0.17037   63.6863   20.00000 0.91923
264.284	   126.39000      0.17046   63.6816   20.00000 0.91906
264.612	   126.55500      0.17068   63.6795   20.00000 0.91889
264.941	   126.72000      0.17056   63.6789   20.00000 0.91872
265.269	   126.88500      0.17048   63.678   20.00000 0.91855
265.597	   127.05000      0.17027   63.6779   20.00000 0.91838
265.925	   127.21500      0.17013   63.6802   20.00000 0.91822
266.252	   127.38000      0.17046   63.6884   20.00000 0.91805
266.581	   127.54500      0.17018   63.688   20.00000 0.91788
266.908	   127.71000      0.17037   63.6851   20.00000 0.91771
267.236	   127.87500      0.16996   63.6819   20.00000 0.91754
267.563	   128.04000      0.17115   63.6815   20.00000 0.91737
267.89	   128.20500      0.16961   63.6813   20.00000 0.91720
268.217	   128.37000      0.17027   63.6778   20.00000 0.91703
268.544	   128.53500      0.17011   63.6808   20.00000 0.91686
268.871	   128.70000      0.17086   63.6823   20.00000 0.91670
269.198	   128.86500      0.16999   63.6818   20.00000 0.91653
269.526	   129.03000      0.16978   63.6767   20.00000 0.91636
269.855	   129.19500      0.17034   63.6824   20.00000 0.91619
270.184	   129.36000      0.16978   63.6841   20.00000 0.91602
270.513	   129.52500      0.17012   63.681   20.00000 0.91585
270.842	   129.69000      0.16939   63.684   20.00000 0.91569
271.171	   129.85500      0.17000   63.6879   20.00000 0.91552
271.501	   130.02000      0.16929   63.6829   20.00000 0.91535
271.828	   130.18500      0.16958   63.6809   20.00000 0.91518
272.158	   130.35000      0.16919   63.6856   20.00000 0.91502
272.486	   130.51500      0.16898   63.6848   20.00000 0.91485
272.815	   130.68000      0.16949   63.683   20.00000 0.91468
273.143	   130.84500      0.16972   63.6823   20.00000 0.91451
273.47	   131.01000      0.17007   63.682   20.00000 0.91434
273.798	   131.17500      0.16910   63.683   20.00000 0.91417
274.124	   131.34000      0.16968   63.6844   20.00000 0.91400
274.451	   131.50500      0.16910   63.6792   20.00000 0.91384
274.779	   131.67000      0.16919   63.6809   20.00000 0.91367
275.107	   131.83500      0.16921   63.68   20.00000 0.91350
275.435	   132.00000      0.16890   63.6783   20.00000 0.91333
275.764	   132.16500      0.16932   63.6779   20.00000 0.91317
276.092	   132.33000      0.16939   63.6836   20.00000 0.91300
276.421	   132.49500      0.16917   63.6771   20.00000 0.91283
276.749	   132.66000      0.16812   63.6734   20.00000 0.91266
277.077	   132.82500      0.16904   63.6717   20.00000 0.91250
277.405	   132.99000      0.16929   63.6779   20.00000 0.91233
277.734	   133.15500      0.16931   63.6838   20.00000 0.91216
278.064	   133.32000      0.16890   63.6799   20.00000 0.91200
278.393	   133.48500      0.16928   63.677   20.00000 0.91183
278.723	   133.65000      0.16900   63.6774   20.00000 0.91166
279.051	   133.81500      0.16918   63.6738   20.00000 0.91149
279.381	   133.98000      0.16910   63.673   20.00000 0.91133
279.71	   134.14500      0.16868   63.6751   20.00000 0.91116
280.038	   134.31000      0.16832   63.681   20.00000 0.91099
280.366	   134.47500      0.16852   63.6752   20.00000 0.91082
280.696	   134.64000      0.16832   63.6818   20.00000 0.91066
281.025	   134.80500      0.16865   63.6806   20.00000 0.91049
281.353	   134.97000      0.16832   63.6835   20.00000 0.91032
281.682	   135.13500      0.16828   63.684   20.00000 0.91015
282.01	   135.30000      0.16861   63.683   20.00000 0.90999
282.337	   135.46500      0.16854   63.6804   20.00000 0.90982
282.664	   135.63000      0.16871   63.682   20.00000 0.90965
282.992	   135.79500      0.16887   63.6828   20.00000 0.90949
283.321	   135.96000      0.16773   63.6778   20.00000 0.90932
283.649	   136.12500      0.16760   63.6728   20.00000 0.90915
283.977	   136.29000      0.16832   63.6812   20.00000 0.90899
284.305	   136.45500      0.16758   63.6808   20.00000 0.90882
284.634	   136.62000      0.16792   63.6751   20.00000 0.90865
284.963	   136.78500      0.16816   63.6735   20.00000 0.90849
285.29	   136.95000      0.16812   63.6784   20.00000 0.90832
285.619	   137.11500      0.16789   63.6868   20.00000 0.90816
285.947	   137.28000      0.16763   63.6806   20.00000 0.90799
286.275	   137.44500      0.16768   63.6833   20.00000 0.90782
286.603	   137.61000      0.16763   63.682   20.00000 0.90766
286.93	   137.77500      0.16719   63.6758   20.00000 0.90749
287.259	   137.94000      0.16773   63.6764   20.00000 0.90733
287.587	   138.10500      0.16778   63.667   20.00000 0.90716
287.914	   138.27000      0.16792   63.666   20.00000 0.90699
288.242	   138.43500      0.16764   63.6663   20.00000 0.90683
288.57	   138.60000      0.16763   63.6637   20.00000 0.90666
288.898	   138.76500      0.16789   63.6638   20.00000 0.90650
289.224	   138.93000      0.16734   63.6662   20.00000 0.90633
289.552	   139.09500      0.16768   63.665   20.00000 0.90617
289.88	   139.26000      0.16773   63.6652   20.00000 0.90600
290.207	   139.42500      0.16781   63.6668   20.00000 0.90584
290.534	   139.59000      0.16792   63.6711   20.00000 0.90567
290.86	   139.75500      0.16738   63.6665   20.00000 0.90550
291.185	   139.92000      0.16744   63.6596   20.00000 0.90534
291.511	   140.08500      0.16726   63.6561   20.00000 0.90517
291.835	   140.25000      0.16744   63.6603   20.00000 0.90501
292.16	   140.41500      0.16724   63.6577   20.00000 0.90485
292.487	   140.58000      0.16724   63.6593   20.00000 0.90468
292.814	   140.74500      0.16724   63.6608   20.00000 0.90452
293.142	   140.91000      0.16714   63.6631   20.00000 0.90435
293.471	   141.07500      0.16781   63.6602   20.00000 0.90419
293.799	   141.24000      0.16724   63.665   20.00000 0.90402
294.127	   141.40500      0.16726   63.6659   20.00000 0.90386
294.455	   141.57000      0.16665   63.6676   20.00000 0.90370
294.785	   141.73500      0.16717   63.665   20.00000 0.90353
295.115	   141.90000      0.16734   63.6525   20.00000 0.90337
295.444	   142.06500      0.16716   63.6582   20.00000 0.90321
295.775	   142.23000      0.16656   63.6593   20.00000 0.90304
296.105	   142.39500      0.16741   63.661   20.00000 0.90288
296.436	   142.56000      0.16656   63.6639   20.00000 0.90271
296.765	   142.72500      0.16718   63.6664   20.00000 0.90255
297.093	   142.89000      0.16734   63.6633   20.00000 0.90238
297.421	   143.05500      0.16701   63.6646   20.00000 0.90222
297.749	   143.22000      0.16744   63.6662   20.00000 0.90205
298.076	   143.38500      0.16698   63.668   20.00000 0.90189
298.404	   143.55000      0.16665   63.6691   20.00000 0.90172
298.731	   143.71500      0.16650   63.6697   20.00000 0.90156
299.058	   143.88000      0.16675   63.6727   20.00000 0.90139
299.385	   144.04500      0.16677   63.6712   20.00000 0.90123
299.713	   144.21000      0.16734   63.6709   20.00000 0.90106
300.041	   144.37500      0.16702   63.6715   20.00000 0.90090
300.368	   144.54000      0.16685   63.6711   20.00000 0.90074
300.696	   144.70500      0.16663   63.6819   20.00000 0.90057
301.023	   144.87000      0.16675   63.6839   20.00000 0.90041
301.35	   145.03500      0.16624   63.6777   20.00000 0.90025
301.678	   145.20000      0.16695   63.6735   20.00000 0.90008
302.006	   145.36500      0.16625   63.68   20.00000 0.89992
302.334	   145.53000      0.16636   63.6735   20.00000 0.89976
302.663	   145.69500      0.16697   63.6703   20.00000 0.89959
302.991	   145.86000      0.16529   63.6715   20.00000 0.89943
303.319	   146.02500      0.16619   63.6678   20.00000 0.89927
303.647	   146.19000      0.16617   63.6682   20.00000 0.89911
303.974	   146.35500      0.16583   63.6685   20.00000 0.89894
304.302	   146.52000      0.16587   63.6641   20.00000 0.89878
304.63	   146.68500      0.16622   63.6607   20.00000 0.89862
304.958	   146.85000      0.16529   63.6605   20.00000 0.89845
305.286	   147.01500      0.16568   63.6582   20.00000 0.89829
305.613	   147.18000      0.16607   63.6524   20.00000 0.89813
305.94	   147.34500      0.16542   63.6573   20.00000 0.89797
306.266	   147.51000      0.16578   63.6573   20.00000 0.89780
306.592	   147.67500      0.16525   63.6534   20.00000 0.89764
306.918	   147.84000      0.16587   63.6569   20.00000 0.89748
307.243	   148.00500      0.16572   63.6564   20.00000 0.89731
307.57	   148.17000      0.16509   63.6515   20.00000 0.89715
307.896	   148.33500      0.16519   63.6552   20.00000 0.89699
308.222	   148.50000      0.16548   63.661   20.00000 0.89683
308.549	   148.66500      0.16522   63.6602   20.00000 0.89667
308.877	   148.83000      0.16558   63.6597   20.00000 0.89650
309.204	   148.99500      0.16486   63.6576   20.00000 0.89634
309.531	   149.16000      0.16617   63.6582   20.00000 0.89618
309.858	   149.32500      0.16558   63.6583   20.00000 0.89602
310.186	   149.49000      0.16548   63.6565   20.00000 0.89586
310.513	   149.65500      0.16507   63.6575   20.00000 0.89570
310.84	   149.82000      0.16519   63.6608   20.00000 0.89554
311.168	   149.98500      0.16540   63.6614   20.00000 0.89538
311.495	   150.15000      0.16558   63.6635   20.00000 0.89521
311.82	   150.31500      0.16434   63.6595   20.00000 0.89505
312.147	   150.48000      0.16441   63.6557   20.00000 0.89489
312.475	   150.64500      0.16472   63.6543   20.00000 0.89473
312.802	   150.81000      0.16421   63.6512   20.00000 0.89457
313.129	   150.97500      0.16488   63.6507   20.00000 0.89441
313.457	   151.14000      0.16441   63.6537   20.00000 0.89425
313.787	   151.30500      0.16446   63.6496   20.00000 0.89408
314.115	   151.47000      0.16509   63.6525   20.00000 0.89392
314.441	   151.63500      0.16474   63.6607   20.00000 0.89376
314.766	   151.80000      0.16451   63.6543   20.00000 0.89360
315.091	   151.96500      0.16401   63.6552   20.00000 0.89344
315.417	   152.13000      0.16402   63.6635   20.00000 0.89328
315.743	   152.29500      0.16426   63.6701   20.00000 0.89312
316.07	   152.46000      0.16421   63.6639   20.00000 0.89296
316.398	   152.62500      0.16506   63.6574   20.00000 0.89280
316.727	   152.79000      0.16451   63.6624   20.00000 0.89264
317.055	   152.95500      0.16370   63.6615   20.00000 0.89248
317.383	   153.12000      0.16392   63.6674   20.00000 0.89232
317.71	   153.28500      0.16423   63.665   20.00000 0.89216
318.037	   153.45000      0.16480   63.6577   20.00000 0.89200
318.364	   153.61500      0.16443   63.6648   20.00000 0.89184
318.69	   153.78000      0.16431   63.675   20.00000 0.89168
319.017	   153.94500      0.16404   63.6668   20.00000 0.89152
319.343	   154.11000      0.16441   63.666   20.00000 0.89136
319.668	   154.27500      0.16389   63.6697   20.00000 0.89120
319.994	   154.44000      0.16412   63.6733   20.00000 0.89104
320.321	   154.60500      0.16376   63.6729   20.00000 0.89088
320.648	   154.77000      0.16314   63.6772   20.00000 0.89072
320.974	   154.93500      0.16395   63.6711   20.00000 0.89056
321.302	   155.10000      0.16353   63.6694   20.00000 0.89040
321.629	   155.26500      0.16402   63.6731   20.00000 0.89024
321.956	   155.43000      0.16353   63.6792   20.00000 0.89008
322.284	   155.59500      0.16345   63.6737   20.00000 0.88992
322.611	   155.76000      0.16392   63.6723   20.00000 0.88976
322.938	   155.92500      0.16386   63.6675   20.00000 0.88960
323.264	   156.09000      0.16314   63.6695   20.00000 0.88944
323.592	   156.25500      0.16443   63.6696   20.00000 0.88928
323.92	   156.42000      0.16363   63.6683   20.00000 0.88912
324.247	   156.58500      0.16373   63.6729   20.00000 0.88896
324.575	   156.75000      0.16353   63.675   20.00000 0.88880
324.903	   156.91500      0.16436   63.6805   20.00000 0.88864
325.231	   157.08000      0.16402   63.6762   20.00000 0.88849
325.557	   157.24500      0.16288   63.6774   20.00000 0.88833
325.884	   157.41000      0.16363   63.6752   20.00000 0.88817
326.21	   157.57500      0.16381   63.6755   20.00000 0.88801
326.536	   157.74000      0.16314   63.6718   20.00000 0.88785
326.862	   157.90500      0.16363   63.6758   20.00000 0.88769
327.187	   158.07000      0.16353   63.6767   20.00000 0.88753
327.514	   158.23500      0.16338   63.6749   20.00000 0.88737
327.841	   158.40000      0.16284   63.6764   20.00000 0.88721
328.168	   158.56500      0.16279   63.675   20.00000 0.88706
328.496	   158.73000      0.16294   63.6728   20.00000 0.88690
328.824	   158.89500      0.16339   63.6807   20.00000 0.88674
329.151	   159.06000      0.16324   63.6817   20.00000 0.88658
329.479	   159.22500      0.16274   63.6802   20.00000 0.88642
329.807	   159.39000      0.16275   63.6806   20.00000 0.88627
330.136	   159.55500      0.16239   63.6786   20.00000 0.88611
330.464	   159.72000      0.16275   63.6792   20.00000 0.88595
330.792	   159.88500      0.16260   63.6804   20.00000 0.88579
331.121	   160.05000      0.16236   63.6799   20.00000 0.88563
331.448	   160.21500      0.16248   63.685   20.00000 0.88548
331.775	   160.38000      0.16197   63.6828   20.00000 0.88532
332.101	   160.54500      0.16285   63.6769   20.00000 0.88516
332.428	   160.71000      0.16167   63.6796   20.00000 0.88500
332.755	   160.87500      0.16215   63.6878   20.00000 0.88484
333.082	   161.04000      0.16255   63.6958   20.00000 0.88468
333.409	   161.20500      0.16251   63.6833   20.00000 0.88453
333.735	   161.37000      0.16187   63.6845   20.00000 0.88437
334.063	   161.53500      0.16208   63.689   20.00000 0.88421
334.39	   161.70000      0.16187   63.6851   20.00000 0.88405
334.716	   161.86500      0.16124   63.6893   20.00000 0.88390
335.043	   162.03000      0.16158   63.6905   20.00000 0.88374
335.37	   162.19500      0.16154   63.6873   20.00000 0.88358
335.697	   162.36000      0.16245   63.687   20.00000 0.88342
336.023	   162.52500      0.16152   63.6821   20.00000 0.88327
336.349	   162.69000      0.16167   63.6932   20.00000 0.88311
336.675	   162.85500      0.16144   63.6915   20.00000 0.88295
337.002	   163.02000      0.16177   63.6847   20.00000 0.88280
337.326	   163.18500      0.16148   63.6807   20.00000 0.88264
337.654	   163.35000      0.16070   63.6742   20.00000 0.88248
337.98	   163.51500      0.16132   63.6734   20.00000 0.88233
