#FILE:VA_130315_Cu_05_Ar.ngb-ss1
#FORMAT:NETZSCH5
#IDENTITY:VA_130315_Cu_05_Ar
#DECIMAL:POINT
#SEPARATOR:SEMICOLON
#MTYPE:DSC
#INSTRUMENT:NETZSCH STA 449F1
#PROJECT:oxide hydroxide
#DATE/TIME:15.03.2013 9:59:01
#CORR. FILE:
#LABORATORY:Нанотех
#OPERATOR:Compositers
#REMARK:
#SAMPLE:VA_130315_Cu_05_Ar
#SAMPLE MASS /mg:7.69
#MATERIAL:MxOy.kH2O
#REFERENCE:
#REFERENCE MASS /mg:0
#TYPE OF CRUCIBLE:DSC/TG pan Pt-Rh
#SAMPLE CRUCIBLE MASS /mg:183.70
#REFERENCE CRUCIBLE MASS /mg:185
#CORR. CODE:000
#EXO:+1
#RANGE:20/5.0(K/min)/350
#SEGMENT:S1/1

##Temp./°C;Time/min;DSC/(mW/mg);Mass/%;Gas Flow(protective)/(ml/min);Sensit./(uV/mW)
 22.579	     0.00000      0.24748   100.00000    20.00000 1.04993
 22.5986	     6.60000      0.24786   100.00038    20.00000 1.04993
 22.5996	     0.13200      0.24835   100.0004    20.00000 1.04993
 22.6	     0.19800      0.24742   100.0004    20.00000 1.04993
 22.6016	     0.26400      0.24737   100.00043    20.00000 1.04993
 22.6041	     0.33000      0.24757   100.00048    20.00000 1.04993
 22.6071	     0.39600      0.24686   100.00054    20.00000 1.04992
 22.6113	     0.46200      0.24668   100.00062    20.00000 1.04992
 22.6185	     0.52800      0.24625   100.00076    20.00000 1.04992
 22.628	     0.59400      0.24599   100.00094    20.00000 1.04991
 22.6378	     0.66000      0.24493   100.00113    20.00000 1.04990
 22.6508	     0.72600      0.24321   100.00138    20.00000 1.04989
 22.6684	     0.79200      0.24195   100.00172    20.00000 1.04988
 22.6898	     0.85800      0.24032   100.00213    20.00000 1.04987
 22.7148	     0.92400      0.23944   100.00261    20.00000 1.04985
 22.744	     0.99000      0.23730   100.00317    20.00000 1.04983
 22.7788	     1.05600      0.23582   100.00384    20.00000 1.04981
 22.8182	     1.12200      0.23299   100.0046    20.00000 1.04978
 22.8611	     1.18800      0.23070   100.00542    20.00000 1.04976
 22.9104	     1.25400      0.22760   100.00637    20.00000 1.04973
 22.9648	     1.32000      0.22599   100.00741    20.00000 1.04969
 23.025	     1.38600      0.22286   100.00857    20.00000 1.04966
 23.0896	     1.45200      0.22016   100.00981    20.00000 1.04961
 23.159	     1.51800      0.21701   100.01115    20.00000 1.04957
 23.2339	     1.58400      0.21324   100.01259    20.00000 1.04952
 23.3142	     1.65000      0.21195   100.01413    20.00000 1.04948
 23.3994	     1.71600      0.20952   100.01577    20.00000 1.04942
 23.4885	     1.78200      0.20551   100.01389    20.00000 1.04937
 23.5834	     1.84800      0.20301   99.98939    20.00000 1.04931
 23.6849	     1.91400      0.19955   99.97862    20.00000 1.04925
 23.7912	     1.98000      0.19744   99.97563    20.00000 1.04919
 23.9024	     2.04600      0.19342   99.97261    20.00000 1.04912
 24.0184	     2.11200      0.19096   99.97796    20.00000 1.04905
 24.1402	     2.17800      0.18777   99.9747    20.00000 1.04898
 24.267	     2.24400      0.18569   99.9758    20.00000 1.04890
 24.3968	     2.31000      0.18408   99.97569    20.00000 1.04883
 24.5318	     2.37600      0.17973   99.97755    20.00000 1.04875
 24.6711	     2.44200      0.17861   99.98455    20.00000 1.04867
 24.815	     2.50800      0.17531   99.98618    20.00000 1.04858
 24.9626	     2.57400      0.17284   99.99227    20.00000 1.04850
 25.1144	     2.64000      0.16986   100.00137    20.00000 1.04841
 25.2701	     2.70600      0.16822   100.00495    20.00000 1.04832
 25.4306	     2.77200      0.16585   100.00077    20.00000 1.04822
 25.5942	     2.83800      0.16382   99.99646    20.00000 1.04813
 25.7609	     2.90400      0.16160   99.99387    20.00000 1.04803
 25.9309	     2.97000      0.15924   99.98969    20.00000 1.04793
 26.1042	     3.03600      0.15759   99.99041    20.00000 1.04783
 26.2812	     3.10200      0.15437   99.98889    20.00000 1.04773
 26.463	     3.16800      0.15291   99.98786    20.00000 1.04763
 26.6484	     3.23400      0.15083   99.98545    20.00000 1.04752
 26.8369	     3.30000      0.14852   99.98556    20.00000 1.04742
 27.0275	     3.36600      0.14684   99.98896    20.00000 1.04731
 27.2205	     3.43200      0.14649   99.99244    20.00000 1.04720
 27.4159	     3.49800      0.14392   99.99678    20.00000 1.04709
 27.6127	     3.56400      0.14294   99.99798    20.00000 1.04697
 27.8107	     3.63000      0.14007   100.00015    20.00000 1.04686
 28.012	     3.69600      0.13790   100.00415    20.00000 1.04674
 28.2161	     3.76200      0.13782   100.00823    20.00000 1.04663
 28.4242	     3.82800      0.13532   100.0123    20.00000 1.04651
 28.6353	     3.89400      0.13376   100.00844    20.00000 1.04639
 28.8477	     3.96000      0.13152   100.00247    20.00000 1.04627
 29.0635	     4.02600      0.13057   99.99951    20.00000 1.04615
 29.2811	     4.09200      0.12923   99.99773    20.00000 1.04602
 29.5013	     4.15800      0.12797   99.9971    20.00000 1.04590
 29.722	     4.22400      0.12573   99.99719    20.00000 1.04577
 29.945	     4.29000      0.12458   99.9965    20.00000 1.04565
 30.1716	     4.35600      0.12353   99.99507    20.00000 1.04552
 30.4005	     4.42200      0.12188   99.99452    20.00000 1.04539
 30.6323	     4.48800      0.11996   99.9932    20.00000 1.04526
 30.8657	     4.55400      0.11873   99.9929    20.00000 1.04513
 31.1016	     4.62000      0.11811   99.99454    20.00000 1.04500
 31.3382	     4.68600      0.11600   99.9983    20.00000 1.04487
 31.5754	     4.75200      0.11410   100.00599    20.00000 1.04473
 31.8139	     4.81800      0.11280   100.01072    20.00000 1.04460
 32.0547	     4.88400      0.11231   100.01191    20.00000 1.04446
 32.2975	     4.95000      0.11068   100.0107    20.00000 1.04433
 32.5429	     5.01600      0.10906   100.00912    20.00000 1.04419
 32.7893	     5.08200      0.10790   100.0073    20.00000 1.04405
 33.0376	     5.14800      0.10695   100.00795    20.00000 1.04391
 33.2888	     5.21400      0.10537   100.00828    20.00000 1.04377
 33.5398	     5.28000      0.10476   100.00536    20.00000 1.04363
 33.7915	     5.34600      0.10296   100.00542    20.00000 1.04348
 34.0453	     5.41200      0.10156   100.00582    20.00000 1.04334
 34.3015	     5.47800      0.10074   100.00507    20.00000 1.04320
 34.5611	     5.54400  9.8370e-002   100.00509    20.00000 1.04305
 34.8205	     5.61000  9.8079e-002   100.00525    20.00000 1.04290
 35.0818	     5.67600  9.7163e-002   100.00451    20.00000 1.04276
 35.3446	     5.74200  9.4965e-002   100.00022    20.00000 1.04261
 35.6093	     5.80800  9.3725e-002   99.99265    20.00000 1.04246
 35.8743	     5.87400  9.2442e-002   99.99169    20.00000 1.04231
 36.1401	     5.94000  9.1866e-002   99.99352    20.00000 1.04216
 36.4059	     6.00600  8.9712e-002   99.99589    20.00000 1.04201
 36.6736	     6.07200  8.9408e-002   99.9961    20.00000 1.04186
 36.9424	     6.13800  8.7454e-002   99.99677    20.00000 1.04171
 37.2111	     6.20400  8.6275e-002   99.9971    20.00000 1.04156
 37.4823	     6.27000  8.4883e-002   99.9977    20.00000 1.04141
 37.7537	     6.33600  8.3366e-002   99.9989    20.00000 1.04126
 38.0277	     6.40200  8.1631e-002   100.00126    20.00000 1.04110
 38.3025	     6.46800  7.9990e-002   99.99993    20.00000 1.04095
 38.5783	     6.53400  7.8554e-002   99.998    20.00000 1.04079
 38.856	     6.60000  7.7223e-002   99.99636    20.00000 1.04064
 39.1341	     6.66600  7.5054e-002   99.99563    20.00000 1.04049
 39.4136	     6.73200  7.3568e-002   99.99802    20.00000 1.04033
 39.694	     6.79800  7.0799e-002   99.9937    20.00000 1.04017
 39.9746	     6.86400  6.9152e-002   99.99031    20.00000 1.04002
 40.2564	     6.93000  6.6882e-002   99.98603    20.00000 1.03986
 40.5367	     6.99600  6.3593e-002   99.98247    20.00000 1.03970
 40.8179	     7.06200  6.0772e-002   99.97396    20.00000 1.03954
 41.0988	     7.12800  5.5997e-002   99.96302    20.00000 1.03938
 41.3799	     7.19400  4.8491e-002   99.9498    20.00000 1.03922
 41.6619	     7.26000  3.7524e-002   99.93764    20.00000 1.03906
 41.9463	     7.32600  2.6692e-002   99.92554    20.00000 1.03890
 42.2325	     7.39200  1.6609e-002   99.91204    20.00000 1.03874
 42.5174	     7.45800  8.1866e-003   99.89626    20.00000 1.03858
 42.8042	     7.52400 -1.1501e-003   99.87859    20.00000 1.03842
 43.0918	     7.59000 -9.8422e-003   99.86043    20.00000 1.03826
 43.3796	     7.65600 -2.0476e-002   99.84135    20.00000 1.03810
 43.6672	     7.72200 -3.0010e-002   99.82064    20.00000 1.03794
 43.9561	     7.78800 -3.8887e-002   99.79877    20.00000 1.03778
 44.2461	     7.85400 -5.0106e-002   99.77471    20.00000 1.03761
 44.537	     7.92000 -5.9960e-002   99.74845    20.00000 1.03745
 44.8281	     7.98600 -6.8922e-002   99.72378    20.00000 1.03729
 45.1209	     8.05200 -7.8311e-002   99.7001    20.00000 1.03713
 45.4128	     8.11800 -8.7920e-002   99.67659    20.00000 1.03696
 45.7042	     8.18400 -9.6790e-002   99.65205    20.00000 1.03680
 45.9971	     8.25000     -0.10422   99.62519    20.00000 1.03663
 46.2899	     8.31600     -0.11423   99.59505    20.00000 1.03647
 46.5831	     8.38200     -0.12202   99.56468    20.00000 1.03631
 46.8766	     8.44800     -0.13034   99.53327    20.00000 1.03614
 47.1712	     8.51400     -0.13776   99.49737    20.00000 1.03598
 47.4658	     8.58000     -0.14683   99.46155    20.00000 1.03581
 47.7622	     8.64600     -0.15618   99.42479    20.00000 1.03565
 48.0582	     8.71200     -0.16435   99.38726    20.00000 1.03548
 48.3549	     8.77800     -0.17421   99.35027    20.00000 1.03532
 48.6509	     8.84400     -0.18250   99.31314    20.00000 1.03515
 48.947	     8.91000     -0.19133   99.27214    20.00000 1.03498
 49.2437	     8.97600     -0.20046   99.23    20.00000 1.03482
 49.5406	     9.04200     -0.21010   99.18501    20.00000 1.03465
 49.8384	     9.10800     -0.22040   99.13994    20.00000 1.03448
 50.1368	     9.17400     -0.22907   99.09164    20.00000 1.03432
 50.4356	     9.24000     -0.23965   99.04138    20.00000 1.03415
 50.7353	     9.30600     -0.24934   98.99078    20.00000 1.03398
 51.0355	     9.37200     -0.25928   98.93621    20.00000 1.03381
 51.335	     9.43800     -0.26969   98.87879    20.00000 1.03364
 51.6343	     9.50400     -0.28030   98.8248    20.00000 1.03348
 51.9341	     9.57000     -0.29188   98.77043    20.00000 1.03331
 52.235	     9.63600     -0.30241   98.71376    20.00000 1.03314
 52.535	     9.70200     -0.31414   98.64746    20.00000 1.03297
 52.8366	     9.76800     -0.32654   98.58203    20.00000 1.03280
 53.1388	     9.83400     -0.33772   98.52199    20.00000 1.03263
 53.4406	     9.90000     -0.34997   98.45761    20.00000 1.03246
 53.7431	     9.96600     -0.36238   98.39086    20.00000 1.03229
 54.0455	    10.03200     -0.37514   98.31951    20.00000 1.03212
 54.3482	    10.09800     -0.38911   98.25283    20.00000 1.03195
 54.6509	    10.16400     -0.40122   98.18146    20.00000 1.03178
 54.9543	    10.23000     -0.41479   98.10765    20.00000 1.03161
 55.2582	    10.29600     -0.42821   98.0301    20.00000 1.03144
 55.5624	    10.36200     -0.44227   97.94633    20.00000 1.03127
 55.8657	    10.42800     -0.45646   97.86824    20.00000 1.03110
 56.1701	    10.49400     -0.47120   97.78707    20.00000 1.03093
 56.4743	    10.56000     -0.48626   97.70187    20.00000 1.03076
 56.7795	    10.62600     -0.50069   97.61461    20.00000 1.03058
 57.0846	    10.69200     -0.51670   97.52598    20.00000 1.03041
 57.3903	    10.75800     -0.53278   97.43709    20.00000 1.03024
 57.6978	    10.82400     -0.54796   97.35056    20.00000 1.03007
 58.004	    10.89000     -0.56383   97.26006    20.00000 1.02990
 58.3109	    10.95600     -0.58026   97.15936    20.00000 1.02973
 58.6179	    11.02200     -0.59851   97.05536    20.00000 1.02956
 58.9258	    11.08800     -0.61523   96.95337    20.00000 1.02939
 59.2333	    11.15400     -0.63414   96.84907    20.00000 1.02922
 59.5402	    11.22000     -0.65145   96.73962    20.00000 1.02905
 59.848	    11.28600     -0.66958   96.62559    20.00000 1.02887
 60.1564	    11.35200     -0.68898   96.51356    20.00000 1.02870
 60.4649	    11.41800     -0.70842   96.40334    20.00000 1.02853
 60.7738	    11.48400     -0.72747   96.2943    20.00000 1.02836
 61.0829	    11.55000     -0.74733   96.17475    20.00000 1.02819
 61.3919	    11.61600     -0.76754   96.0525    20.00000 1.02802
 61.7015	    11.68200     -0.78822   95.93081    20.00000 1.02785
 62.0108	    11.74800     -0.81012   95.80551    20.00000 1.02768
 62.3195	    11.81400     -0.83100   95.67629    20.00000 1.02751
 62.6284	    11.88000     -0.85322   95.55133    20.00000 1.02733
 62.9373	    11.94600     -0.87525   95.4177    20.00000 1.02716
 63.2473	    12.01200     -0.89855   95.28092    20.00000 1.02699
 63.5586	    12.07800     -0.92075   95.13527    20.00000 1.02682
 63.8711	    12.14400     -0.94483   94.98633    20.00000 1.02664
 64.1844	    12.21000     -0.96847   94.83741    20.00000 1.02647
 64.4972	    12.27600     -0.99232   94.68752    20.00000 1.02630
 64.81	    12.34200     -1.01623   94.53946    20.00000 1.02612
 65.1237	    12.40800     -1.04126   94.3897    20.00000 1.02595
 65.4355	    12.47400     -1.06547   94.23432    20.00000 1.02578
 65.7462	    12.54000     -1.09069   94.07611    20.00000 1.02560
 66.0572	    12.60600     -1.11593   93.90699    20.00000 1.02543
 66.3673	    12.67200     -1.14142   93.74367    20.00000 1.02526
 66.6771	    12.73800     -1.16670   93.57716    20.00000 1.02508
 66.9867	    12.80400     -1.19089   93.41107    20.00000 1.02491
 67.2953	    12.87000     -1.21805   93.23149    20.00000 1.02474
 67.6046	    12.93600     -1.24316   93.05277    20.00000 1.02457
 67.9149	    13.00200     -1.26984   92.87031    20.00000 1.02440
 68.2244	    13.06800     -1.29522   92.69365    20.00000 1.02423
 68.5342	    13.13400     -1.32153   92.51115    20.00000 1.02405
 68.8431	    13.20000     -1.34669   92.32059    20.00000 1.02388
 69.1523	    13.26600     -1.37144   92.13346    20.00000 1.02371
 69.4622	    13.33200     -1.39741   91.93842    20.00000 1.02354
 69.7705	    13.39800     -1.42246   91.74314    20.00000 1.02336
 70.0803	    13.46400     -1.44731   91.54133    20.00000 1.02319
 70.3889	    13.53000     -1.47195   91.34685    20.00000 1.02302
 70.6984	    13.59600     -1.49660   91.14298    20.00000 1.02285
 71.0088	    13.66200     -1.52029   90.93862    20.00000 1.02268
 71.3192	    13.72800     -1.54411   90.73135    20.00000 1.02250
 71.6298	    13.79400     -1.56656   90.52519    20.00000 1.02233
 71.9401	    13.86000     -1.59064   90.31033    20.00000 1.02216
 72.2515	    13.92600     -1.61249   90.09087    20.00000 1.02198
 72.5601	    13.99200     -1.63496   89.8716    20.00000 1.02181
 72.8692	    14.05800     -1.65850   89.6538    20.00000 1.02164
 73.1802	    14.12400     -1.68072   89.4263    20.00000 1.02146
 73.4916	    14.19000     -1.70312   89.2033    20.00000 1.02129
 73.8041	    14.25600     -1.72306   88.9764    20.00000 1.02112
 74.1171	    14.32200     -1.74550   88.7574    20.00000 1.02095
 74.433	    14.38800     -1.76597   88.5315    20.00000 1.02077
 74.7505	    14.45400     -1.78582   88.3014    20.00000 1.02060
 75.0676	    14.52000     -1.80578   88.0718    20.00000 1.02043
 75.3858	    14.58600     -1.82373   87.8433    20.00000 1.02025
 75.7043	    14.65200     -1.84073   87.6105    20.00000 1.02008
 76.0254	    14.71800     -1.85514   87.3406    20.00000 1.01991
 76.3483	    14.78400     -1.86740   87.1025    20.00000 1.01974
 76.6717	    14.85000     -1.87367   86.8734    20.00000 1.01956
 76.9977	    14.91600     -1.87691   86.6656    20.00000 1.01939
 77.3254	    14.98200     -1.87037   86.4839    20.00000 1.01921
 77.6559	    15.04800     -1.85442   86.2899    20.00000 1.01904
 77.9896	    15.11400     -1.82326   86.1199    20.00000 1.01886
 78.3262	    15.18000     -1.77117   85.9883    20.00000 1.01869
 78.6668	    15.24600     -1.69146   85.8811    20.00000 1.01851
 79.0085	    15.31200     -1.56908   85.7909    20.00000 1.01833
 79.3525	    15.37800     -1.38527   85.7358    20.00000 1.01815
 79.6984	    15.44400     -1.13059   85.7071    20.00000 1.01796
 80.044	    15.51000     -0.88239   85.6894    20.00000 1.01777
 80.3893	    15.57600     -0.68185   85.6766    20.00000 1.01758
 80.734	    15.64200     -0.52576   85.6657    20.00000 1.01739
 81.0774	    15.70800     -0.40523   85.6541    20.00000 1.01719
 81.4194	    15.77400     -0.31287   85.6421    20.00000 1.01699
 81.7613	    15.84000     -0.23983   85.6324    20.00000 1.01680
 82.103	    15.90600     -0.18505   85.6248    20.00000 1.01660
 82.4428	    15.97200     -0.14542   85.619    20.00000 1.01641
 82.7814	    16.03800     -0.11161   85.6149    20.00000 1.01621
 83.1208	    16.10400 -8.6077e-002   85.6086    20.00000 1.01602
 83.4604	    16.17000 -6.4655e-002   85.6024    20.00000 1.01582
 83.7981	    16.23600 -4.9707e-002   85.5969    20.00000 1.01563
 84.1344	    16.30200 -3.8197e-002   85.59    20.00000 1.01544
 84.4719	    16.36800 -2.8513e-002   85.5825    20.00000 1.01525
 84.8091	    16.43400 -2.1548e-002   85.5747    20.00000 1.01506
 85.1461	    16.50000 -1.6130e-002   85.5667    20.00000 1.01487
 85.4802	    16.56600 -1.2178e-002   85.5583    20.00000 1.01468
 85.8157	    16.63200 -9.5488e-003   85.5497    20.00000 1.01449
 86.1506	    16.69800 -6.7948e-003   85.5432    20.00000 1.01430
 86.4855	    16.76400 -5.7180e-003   85.5372    20.00000 1.01411
 86.8216	    16.83000 -4.5011e-003   85.5318    20.00000 1.01392
 87.1563	    16.89600 -4.0775e-003   85.5261    20.00000 1.01373
 87.4909	    16.96200 -4.3782e-003   85.5211    20.00000 1.01354
 87.8252	    17.02800 -3.3904e-003   85.5159    20.00000 1.01336
 88.1608	    17.09400 -3.3173e-003   85.5108    20.00000 1.01317
 88.4955	    17.16000 -3.8197e-003   85.5076    20.00000 1.01298
 88.8286	    17.22600 -4.9503e-003   85.504    20.00000 1.01279
 89.1615	    17.29200 -6.0610e-003   85.4989    20.00000 1.01260
 89.4961	    17.35800 -6.5273e-003   85.4942    20.00000 1.01242
 89.8304	    17.42400 -7.8593e-003   85.4892    20.00000 1.01223
 90.1638	    17.49000 -8.8228e-003   85.4845    20.00000 1.01204
 90.4979	    17.55600 -9.6552e-003   85.4804    20.00000 1.01185
 90.8324	    17.62200 -1.1040e-002   85.4778    20.00000 1.01167
 91.1666	    17.68800 -1.3012e-002   85.4717    20.00000 1.01148
 91.5007	    17.75400 -1.4217e-002   85.4646    20.00000 1.01129
 91.8349	    17.82000 -1.6288e-002   85.4574    20.00000 1.01111
 92.1681	    17.88600 -1.8272e-002   85.4492    20.00000 1.01092
 92.5016	    17.95200 -2.0046e-002   85.4428    20.00000 1.01073
 92.8354	    18.01800 -2.1919e-002   85.4375    20.00000 1.01055
 93.1692	    18.08400 -2.3653e-002   85.4313    20.00000 1.01036
 93.5024	    18.15000 -2.6026e-002   85.4245    20.00000 1.01017
 93.836	    18.21600 -2.7510e-002   85.4169    20.00000 1.00999
 94.1701	    18.28200 -2.9162e-002   85.4083    20.00000 1.00980
 94.5045	    18.34800 -3.2184e-002   85.3982    20.00000 1.00962
 94.8392	    18.41400 -3.4196e-002   85.389    20.00000 1.00943
 95.1732	    18.48000 -3.6471e-002   85.3815    20.00000 1.00924
 95.5069	    18.54600 -3.9330e-002   85.3727    20.00000 1.00906
 95.8393	    18.61200 -4.1917e-002   85.3627    20.00000 1.00887
 96.17	    18.67800 -4.3824e-002   85.3522    20.00000 1.00869
 96.5018	    18.74400 -4.6277e-002   85.3434    20.00000 1.00850
 96.8333	    18.81000 -4.9886e-002   85.3341    20.00000 1.00832
 97.1655	    18.87600 -5.3073e-002   85.3208    20.00000 1.00813
 97.4989	    18.94200 -5.5594e-002   85.3091    20.00000 1.00794
 97.8321	    19.00800 -5.8363e-002   85.2975    20.00000 1.00776
 98.1678	    19.07400 -6.2770e-002   85.285    20.00000 1.00757
 98.502	    19.14000 -6.6576e-002   85.2733    20.00000 1.00738
 98.8353	    19.20600 -7.1414e-002   85.2623    20.00000 1.00720
 99.1678	    19.27200 -7.6663e-002   85.2513    20.00000 1.00701
 99.4996	    19.33800 -8.3128e-002   85.2402    20.00000 1.00683
 99.8298	    19.40400 -9.0070e-002   85.2213    20.00000 1.00664
 100.157	    19.47000     -0.10242   85.196    20.00000 1.00646
 100.48	    19.53600     -0.12223   85.1496    20.00000 1.00627
 100.8	    19.60200     -0.17314   85.0843    20.00000 1.00609
 101.112	    19.66800     -0.29781   84.9777    20.00000 1.00591
 101.418	    19.73400     -0.44450   84.7706    20.00000 1.00573
 101.716	    19.80000     -0.67990   84.5116    20.00000 1.00555
 102.008	    19.86600     -1.07365   84.2017    20.00000 1.00538
 102.294	    19.93200     -1.50283   83.8305    20.00000 1.00521
 102.575	    19.99800     -1.86184   83.4645    20.00000 1.00505
 102.855	    20.06400     -2.15683   83.0934    20.00000 1.00489
 103.133	    20.13000     -2.39565   82.719    20.00000 1.00473
 103.413	    20.19600     -2.59113   82.333    20.00000 1.00457
 103.693	    20.26200     -2.75251   81.9402    20.00000 1.00442
 103.975	    20.32800     -2.88452   81.5505    20.00000 1.00426
 104.259	    20.39400     -2.99163   81.1532    20.00000 1.00411
 104.545	    20.46000     -3.08046   80.7403    20.00000 1.00395
 104.833	    20.52600     -3.14829   80.3327    20.00000 1.00380
 105.123	    20.59200     -3.20179   79.9217    20.00000 1.00364
 105.416	    20.65800     -3.24171   79.511    20.00000 1.00348
 105.711	    20.72400     -3.26633   79.1092    20.00000 1.00332
 106.009	    20.79000     -3.27883   78.7002    20.00000 1.00315
 106.311	    20.85600     -3.28052   78.2975    20.00000 1.00299
 106.615	    20.92200     -3.26997   77.9064    20.00000 1.00282
 106.921	    20.98800     -3.24847   77.5245    20.00000 1.00266
 107.23	    21.05400     -3.21971   77.1627    20.00000 1.00249
 107.541	    21.12000     -3.18584   76.7891    20.00000 1.00232
 107.855	    21.18600     -3.14624   76.4252    20.00000 1.00215
 108.171	    21.25200     -3.10625   76.0736    20.00000 1.00198
 108.488	    21.31800     -3.06997   75.7375    20.00000 1.00181
 108.808	    21.38400     -3.03729   75.4027    20.00000 1.00163
 109.129	    21.45000     -3.00917   75.0574    20.00000 1.00146
 109.453	    21.51600     -2.98558   74.7387    20.00000 1.00128
 109.781	    21.58200     -2.96555   74.4383    20.00000 1.00111
 110.11	    21.64800     -2.94309   74.1404    20.00000 1.00093
 110.441	    21.71400     -2.91967   73.847    20.00000 1.00075
 110.774	    21.78000     -2.88610   73.5704    20.00000 1.00058
 111.11	    21.84600     -2.84142   73.2932    20.00000 1.00040
 111.448	    21.91200     -2.78032   73.0549    20.00000 1.00022
 111.789	    21.97800     -2.69801   72.8337    20.00000 1.00004
 112.133	    22.04400     -2.59308   72.6399    20.00000 0.99986
 112.479	    22.11000     -2.46175   72.4613    20.00000 0.99967
 112.827	    22.17600     -2.30592   72.2935    20.00000 0.99949
 113.177	    22.24200     -2.12875   72.1723    20.00000 0.99930
 113.53	    22.30800     -1.93628   72.0667    20.00000 0.99911
 113.884	    22.37400     -1.73665   71.9627    20.00000 0.99892
 114.238	    22.44000     -1.53111   71.8781    20.00000 0.99873
 114.594	    22.50600     -1.32484   71.8117    20.00000 0.99853
 114.951	    22.57200     -1.12345   71.7604    20.00000 0.99833
 115.308	    22.63800     -0.93402   71.7198    20.00000 0.99813
 115.665	    22.70400     -0.76260   71.69    20.00000 0.99793
 116.022	    22.77000     -0.61304   71.6665    20.00000 0.99773
 116.379	    22.83600     -0.48857   71.6485    20.00000 0.99753
 116.737	    22.90200     -0.38484   71.6321    20.00000 0.99732
 117.093	    22.96800     -0.30272   71.6169    20.00000 0.99712
 117.448	    23.03400     -0.23725   71.6057    20.00000 0.99692
 117.803	    23.10000     -0.18395   71.5966    20.00000 0.99672
 118.155	    23.16600     -0.14190   71.5887    20.00000 0.99652
 118.505	    23.23200     -0.11169   71.579    20.00000 0.99632
 118.856	    23.29800 -8.4156e-002   71.5691    20.00000 0.99612
 119.205	    23.36400 -6.3521e-002   71.5626    20.00000 0.99593
 119.553	    23.43000 -4.8523e-002   71.5564    20.00000 0.99573
 119.9	    23.49600 -3.7458e-002   71.5471    20.00000 0.99553
 120.247	    23.56200 -2.6990e-002   71.5373    20.00000 0.99534
 120.594	    23.62800 -1.8615e-002   71.53    20.00000 0.99514
 120.94	    23.69400 -1.2601e-002   71.5245    20.00000 0.99495
 121.286	    23.76000 -7.6796e-003   71.5214    20.00000 0.99476
 121.631	    23.82600 -3.6353e-003   71.5203    20.00000 0.99456
 121.976	    23.89200  1.6365e-004   71.5187    20.00000 0.99437
 122.319	    23.95800  2.4724e-003   71.5172    20.00000 0.99418
 122.662	    24.02400  4.1755e-003   71.5154    20.00000 0.99398
 123.006	    24.09000  6.5889e-003   71.5142    20.00000 0.99379
 123.348	    24.15600  8.3787e-003   71.5126    20.00000 0.99360
 123.689	    24.22200  9.1519e-003   71.5092    20.00000 0.99341
 124.031	    24.28800  9.9293e-003   71.5052    20.00000 0.99322
 124.372	    24.35400  1.1346e-002   71.5036    20.00000 0.99303
 124.713	    24.42000  1.2691e-002   71.505    20.00000 0.99284
 125.054	    24.48600  1.2696e-002   71.4981    20.00000 0.99265
 125.394	    24.55200  1.4581e-002   71.4901    20.00000 0.99246
 125.735	    24.61800  1.4557e-002   71.4854    20.00000 0.99227
 126.075	    24.68400  1.4865e-002   71.4834    20.00000 0.99208
 126.414	    24.75000  1.5404e-002   71.4819    20.00000 0.99189
 126.753	    24.81600  1.6155e-002   71.4781    20.00000 0.99170
 127.092	    24.88200  1.6048e-002   71.4724    20.00000 0.99151
 127.431	    24.94800  1.6268e-002   71.4676    20.00000 0.99132
 127.77	    25.01400  1.6583e-002   71.464    20.00000 0.99113
 128.108	    25.08000  1.6920e-002   71.4619    20.00000 0.99095
 128.446	    25.14600  1.7086e-002   71.4598    20.00000 0.99076
 128.785	    25.21200  1.6916e-002   71.4592    20.00000 0.99057
 129.124	    25.27800  1.7978e-002   71.4579    20.00000 0.99038
 129.462	    25.34400  1.8115e-002   71.4603    20.00000 0.99020
 129.799	    25.41000  1.7237e-002   71.458    20.00000 0.99001
 130.137	    25.47600  1.8141e-002   71.4493    20.00000 0.98982
 130.476	    25.54200  1.8498e-002   71.447    20.00000 0.98964
 130.813	    25.60800  1.8416e-002   71.4448    20.00000 0.98945
 131.149	    25.67400  1.8964e-002   71.4413    20.00000 0.98926
 131.487	    25.74000  1.8557e-002   71.4464    20.00000 0.98907
 131.825	    25.80600  1.8552e-002   71.4556    20.00000 0.98889
 132.162	    25.87200  1.9169e-002   71.4527    20.00000 0.98870
 132.498	    25.93800  1.8900e-002   71.4379    20.00000 0.98851
 132.834	    26.00400  1.8345e-002   71.4298    20.00000 0.98833
 133.171	    26.07000  1.8876e-002   71.4308    20.00000 0.98814
 133.507	    26.13600  1.8534e-002   71.4335    20.00000 0.98795
 133.842	    26.20200  1.9117e-002   71.4359    20.00000 0.98777
 134.179	    26.26800  1.8306e-002   71.4359    20.00000 0.98758
 134.515	    26.33400  1.8674e-002   71.4329    20.00000 0.98739
 134.852	    26.40000  1.7889e-002   71.4254    20.00000 0.98721
 135.188	    26.46600  1.8616e-002   71.4186    20.00000 0.98702
 135.523	    26.53200  1.7825e-002   71.414    20.00000 0.98683
 135.858	    26.59800  1.8589e-002   71.4099    20.00000 0.98665
 136.192	    26.66400  1.8898e-002   71.4076    20.00000 0.98646
 136.527	    26.73000  1.7704e-002   71.4073    20.00000 0.98628
 136.861	    26.79600  1.8354e-002   71.4094    20.00000 0.98609
 137.196	    26.86200  1.8363e-002   71.4133    20.00000 0.98590
 137.53	    26.92800  1.8511e-002   71.4144    20.00000 0.98572
 137.865	    26.99400  1.7872e-002   71.4141    20.00000 0.98553
 138.199	    27.06000  1.8124e-002   71.4121    20.00000 0.98535
 138.534	    27.12600  1.8072e-002   71.4084    20.00000 0.98516
 138.869	    27.19200  1.8574e-002   71.4078    20.00000 0.98497
 139.204	    27.25800  1.7860e-002   71.4112    20.00000 0.98478
 139.538	    27.32400  1.7927e-002   71.4117    20.00000 0.98460
 139.872	    27.39000  1.7335e-002   71.4088    20.00000 0.98441
 140.206	    27.45600  1.7420e-002   71.4031    20.00000 0.98423
 140.54	    27.52200  1.7986e-002   71.3966    20.00000 0.98404
 140.875	    27.58800  1.7822e-002   71.3932    20.00000 0.98386
 141.211	    27.65400  1.7369e-002   71.3928    20.00000 0.98367
 141.544	    27.72000  1.7250e-002   71.3947    20.00000 0.98349
 141.881	    27.78600  1.7171e-002   71.3959    20.00000 0.98330
 142.217	    27.85200  1.6840e-002   71.3978    20.00000 0.98312
 142.553	    27.91800  1.6631e-002   71.4013    20.00000 0.98293
 142.887	    27.98400  1.6342e-002   71.399    20.00000 0.98275
 143.22	    28.05000  1.6660e-002   71.3939    20.00000 0.98256
 143.555	    28.11600  1.6240e-002   71.3891    20.00000 0.98238
 143.889	    28.18200  1.6140e-002   71.3887    20.00000 0.98219
 144.223	    28.24800  1.5912e-002   71.3872    20.00000 0.98201
 144.556	    28.31400  1.5773e-002   71.3826    20.00000 0.98182
 144.89	    28.38000  1.5868e-002   71.3796    20.00000 0.98164
 145.224	    28.44600  1.6034e-002   71.3793    20.00000 0.98145
 145.557	    28.51200  1.5965e-002   71.38    20.00000 0.98127
 145.891	    28.57800  1.5918e-002   71.3777    20.00000 0.98108
 146.224	    28.64400  1.5539e-002   71.3746    20.00000 0.98090
 146.558	    28.71000  1.5276e-002   71.3701    20.00000 0.98072
 146.893	    28.77600  1.5102e-002   71.3658    20.00000 0.98053
 147.228	    28.84200  1.4118e-002   71.363    20.00000 0.98035
 147.564	    28.90800  1.5465e-002   71.3639    20.00000 0.98016
 147.898	    28.97400  1.3866e-002   71.367    20.00000 0.97998
 148.232	    29.04000  1.4277e-002   71.3705    20.00000 0.97980
 148.566	    29.10600  1.5308e-002   71.3735    20.00000 0.97961
 148.9	    29.17200  1.4001e-002   71.3747    20.00000 0.97943
 149.235	    29.23800  1.4166e-002   71.3721    20.00000 0.97924
 149.568	    29.30400  1.4069e-002   71.3668    20.00000 0.97906
 149.902	    29.37000  1.4189e-002   71.3619    20.00000 0.97888
 150.237	    29.43600  1.3696e-002   71.3605    20.00000 0.97869
 150.572	    29.50200  1.3930e-002   71.3571    20.00000 0.97851
 150.907	    29.56800  1.3313e-002   71.3541    20.00000 0.97832
 151.241	    29.63400  1.3336e-002   71.352    20.00000 0.97814
 151.576	    29.70000  1.3087e-002   71.3534    20.00000 0.97796
 151.911	    29.76600  1.2784e-002   71.3575    20.00000 0.97777
 152.245	    29.83200  1.2748e-002   71.3572    20.00000 0.97759
 152.58	    29.89800  1.2843e-002   71.353    20.00000 0.97740
 152.913	    29.96400  1.2975e-002   71.3468    20.00000 0.97722
 153.247	    30.03000  1.2084e-002   71.3417    20.00000 0.97704
 153.581	    30.09600  1.2169e-002   71.3355    20.00000 0.97685
 153.915	    30.16200  1.2050e-002   71.3309    20.00000 0.97667
 154.248	    30.22800  1.1645e-002   71.3269    20.00000 0.97649
 154.582	    30.29400  1.1475e-002   71.3253    20.00000 0.97630
 154.917	    30.36000  1.1587e-002   71.3284    20.00000 0.97612
 155.251	    30.42600  1.1191e-002   71.3294    20.00000 0.97594
 155.586	    30.49200  1.1095e-002   71.3301    20.00000 0.97575
 155.92	    30.55800  1.0893e-002   71.3327    20.00000 0.97557
 156.256	    30.62400  1.1242e-002   71.3335    20.00000 0.97538
 156.589	    30.69000  1.0987e-002   71.3334    20.00000 0.97520
 156.923	    30.75600  1.0574e-002   71.3362    20.00000 0.97502
 157.258	    30.82200  1.0720e-002   71.3389    20.00000 0.97483
 157.591	    30.88800  1.0257e-002   71.3384    20.00000 0.97465
 157.924	    30.95400  9.7859e-003   71.3389    20.00000 0.97447
 158.257	    31.02000  1.0183e-002   71.3367    20.00000 0.97429
 158.591	    31.08600  9.8453e-003   71.333    20.00000 0.97410
 158.924	    31.15200  9.1214e-003   71.3308    20.00000 0.97392
 159.258	    31.21800  9.2620e-003   71.3255    20.00000 0.97374
 159.592	    31.28400  8.6228e-003   71.32    20.00000 0.97356
 159.925	    31.35000  9.0714e-003   71.3173    20.00000 0.97337
 160.258	    31.41600  8.0490e-003   71.3161    20.00000 0.97319
 160.592	    31.48200  8.2681e-003   71.3165    20.00000 0.97301
 160.925	    31.54800  8.0454e-003   71.3163    20.00000 0.97282
 161.258	    31.61400  8.5199e-003   71.3151    20.00000 0.97264
 161.592	    31.68000  8.2638e-003   71.3116    20.00000 0.97246
 161.926	    31.74600  7.7630e-003   71.3096    20.00000 0.97228
 162.261	    31.81200  8.4812e-003   71.3101    20.00000 0.97209
 162.594	    31.87800  7.6069e-003   71.3108    20.00000 0.97191
 162.93	    31.94400  7.5602e-003   71.3117    20.00000 0.97173
 163.265	    32.01000  6.8417e-003   71.3108    20.00000 0.97155
 163.598	    32.07600  7.4943e-003   71.3083    20.00000 0.97136
 163.932	    32.14200  6.9510e-003   71.3059    20.00000 0.97118
 164.264	    32.20800  7.0866e-003   71.3047    20.00000 0.97100
 164.597	    32.27400  6.5187e-003   71.3045    20.00000 0.97082
 164.929	    32.34000  6.7461e-003   71.3041    20.00000 0.97064
 165.26	    32.40600  7.1157e-003   71.3027    20.00000 0.97045
 165.592	    32.47200  5.8816e-003   71.3013    20.00000 0.97027
 165.926	    32.53800  5.9259e-003   71.3038    20.00000 0.97009
 166.26	    32.60400  5.7758e-003   71.3034    20.00000 0.96991
 166.592	    32.67000  5.5245e-003   71.2992    20.00000 0.96973
 166.925	    32.73600  5.6868e-003   71.2992    20.00000 0.96955
 167.259	    32.80200  5.4219e-003   71.2974    20.00000 0.96937
 167.591	    32.86800  4.9840e-003   71.2926    20.00000 0.96918
 167.924	    32.93400  4.7987e-003   71.2884    20.00000 0.96900
 168.256	    33.00000  5.3251e-003   71.2858    20.00000 0.96882
 168.589	    33.06600  5.0238e-003   71.2843    20.00000 0.96864
 168.92	    33.13200  5.0511e-003   71.2842    20.00000 0.96846
 169.253	    33.19800  4.4851e-003   71.2835    20.00000 0.96827
 169.585	    33.26400  4.0757e-003   71.2826    20.00000 0.96809
 169.918	    33.33000  3.5877e-003   71.283    20.00000 0.96791
 170.251	    33.39600  4.3568e-003   71.2842    20.00000 0.96773
 170.584	    33.46200  3.2132e-003   71.2824    20.00000 0.96755
 170.918	    33.52800  2.7436e-003   71.2803    20.00000 0.96737
 171.251	    33.59400  3.1372e-003   71.2808    20.00000 0.96719
 171.584	    33.66000  2.6675e-003   71.2803    20.00000 0.96700
 171.916	    33.72600  3.0696e-003   71.2766    20.00000 0.96682
 172.248	    33.79200  2.3249e-003   71.2718    20.00000 0.96664
 172.581	    33.85800  2.2967e-003   71.2706    20.00000 0.96646
 172.913	    33.92400  2.4303e-003   71.2738    20.00000 0.96628
 173.246	    33.99000  1.7458e-003   71.2732    20.00000 0.96610
 173.578	    34.05600  2.0017e-003   71.2697    20.00000 0.96592
 173.912	    34.12200  1.3093e-003   71.2639    20.00000 0.96574
 174.245	    34.18800  1.9184e-003   71.2588    20.00000 0.96555
 174.576	    34.25400  1.1419e-003   71.2562    20.00000 0.96537
 174.909	    34.32000  1.0279e-003   71.2539    20.00000 0.96519
 175.242	    34.38600  9.7420e-004   71.2538    20.00000 0.96501
 175.575	    34.45200  6.3095e-004   71.2536    20.00000 0.96483
 175.908	    34.51800  1.1953e-003   71.2472    20.00000 0.96465
 176.24	    34.58400  6.8782e-004   71.2436    20.00000 0.96447
 176.572	    34.65000  3.0861e-004   71.2418    20.00000 0.96429
 176.905	    34.71600 -2.0517e-005   71.2377    20.00000 0.96411
 177.238	    34.78200  1.5758e-004   71.2359    20.00000 0.96393
 177.57	    34.84800 -5.0472e-004   71.2353    20.00000 0.96375
 177.902	    34.91400 -9.9935e-004   71.2361    20.00000 0.96357
 178.236	    34.98000 -1.3388e-003   71.2365    20.00000 0.96338
 178.568	    35.04600 -1.0232e-003   71.2353    20.00000 0.96320
 178.902	    35.11200 -1.3994e-003   71.2346    20.00000 0.96302
 179.235	    35.17800 -2.5272e-003   71.237    20.00000 0.96284
 179.567	    35.24400 -2.7378e-003   71.2294    20.00000 0.96266
 179.899	    35.31000 -2.8862e-003   71.226    20.00000 0.96248
 180.231	    35.37600 -3.5230e-003   71.2264    20.00000 0.96230
 180.563	    35.44200 -3.7613e-003   71.225    20.00000 0.96212
 180.895	    35.50800 -3.9501e-003   71.2241    20.00000 0.96194
 181.226	    35.57400 -4.2375e-003   71.2237    20.00000 0.96176
 181.558	    35.64000 -4.3334e-003   71.2216    20.00000 0.96158
 181.89	    35.70600 -4.7929e-003   71.2194    20.00000 0.96140
 182.223	    35.77200 -5.7465e-003   71.2175    20.00000 0.96122
 182.556	    35.83800 -5.9642e-003   71.2148    20.00000 0.96103
 182.889	    35.90400 -5.7026e-003   71.2098    20.00000 0.96085
 183.221	    35.97000 -5.9899e-003   71.2075    20.00000 0.96067
 183.554	    36.03600 -6.7039e-003   71.2069    20.00000 0.96049
 183.888	    36.10200 -7.2080e-003   71.2069    20.00000 0.96031
 184.222	    36.16800 -7.6287e-003   71.2036    20.00000 0.96013
 184.555	    36.23400 -7.6536e-003   71.1981    20.00000 0.95995
 184.887	    36.30000 -7.8562e-003   71.1936    20.00000 0.95977
 185.22	    36.36600 -8.5450e-003   71.1899    20.00000 0.95958
 185.552	    36.43200 -9.5068e-003   71.1859    20.00000 0.95940
 185.884	    36.49800 -9.7588e-003   71.1826    20.00000 0.95922
 186.217	    36.56400 -9.8577e-003   71.1797    20.00000 0.95904
 186.549	    36.63000 -1.0864e-002   71.176    20.00000 0.95886
 186.882	    36.69600 -1.1122e-002   71.1727    20.00000 0.95868
 187.216	    36.76200 -1.0338e-002   71.1717    20.00000 0.95850
 187.55	    36.82800 -1.1058e-002   71.1724    20.00000 0.95832
 187.884	    36.89400 -1.1923e-002   71.1713    20.00000 0.95814
 188.218	    36.96000 -1.2532e-002   71.1679    20.00000 0.95795
 188.551	    37.02600 -1.2017e-002   71.164    20.00000 0.95777
 188.884	    37.09200 -1.2776e-002   71.1616    20.00000 0.95759
 189.216	    37.15800 -1.3134e-002   71.1635    20.00000 0.95741
 189.549	    37.22400 -1.4289e-002   71.1617    20.00000 0.95723
 189.881	    37.29000 -1.4513e-002   71.1564    20.00000 0.95705
 190.215	    37.35600 -1.5028e-002   71.1522    20.00000 0.95687
 190.549	    37.42200 -1.6296e-002   71.1485    20.00000 0.95669
 190.882	    37.48800 -1.7681e-002   71.1434    20.00000 0.95651
 191.216	    37.55400 -1.8431e-002   71.1363    20.00000 0.95633
 191.549	    37.62000 -1.9922e-002   71.1298    20.00000 0.95615
 191.884	    37.68600 -2.3360e-002   71.1238    20.00000 0.95597
 192.216	    37.75200 -2.5092e-002   71.117    20.00000 0.95579
 192.549	    37.81800 -2.8009e-002   71.1118    20.00000 0.95561
 192.883	    37.88400 -3.2446e-002   71.1084    20.00000 0.95543
 193.216	    37.95000 -3.6143e-002   71.103    20.00000 0.95525
 193.549	    38.01600 -4.2063e-002   71.0963    20.00000 0.95507
 193.881	    38.08200 -4.7666e-002   71.0886    20.00000 0.95489
 194.214	    38.14800 -5.3679e-002   71.0754    20.00000 0.95471
 194.546	    38.21400 -6.2347e-002   71.0639    20.00000 0.95453
 194.877	    38.28000 -7.0588e-002   71.0533    20.00000 0.95434
 195.209	    38.34600 -7.9889e-002   71.041    20.00000 0.95416
 195.542	    38.41200 -9.1077e-002   71.0273    20.00000 0.95398
 195.873	    38.47800     -0.10190   71.0132    20.00000 0.95380
 196.205	    38.54400     -0.11402   70.9997    20.00000 0.95363
 196.537	    38.61000     -0.12601   70.9879    20.00000 0.95345
 196.868	    38.67600     -0.13968   70.9718    20.00000 0.95327
 197.2	    38.74200     -0.15293   70.9498    20.00000 0.95309
 197.531	    38.80800     -0.16627   70.9245    20.00000 0.95291
 197.862	    38.87400     -0.18113   70.9035    20.00000 0.95273
 198.194	    38.94000     -0.19466   70.8793    20.00000 0.95255
 198.526	    39.00600     -0.20725   70.8585    20.00000 0.95237
 198.859	    39.07200     -0.22057   70.8375    20.00000 0.95219
 199.191	    39.13800     -0.23321   70.8159    20.00000 0.95201
 199.524	    39.20400     -0.24709   70.7945    20.00000 0.95184
 199.855	    39.27000     -0.25886   70.768    20.00000 0.95166
 200.186	    39.33600     -0.27120   70.7387    20.00000 0.95148
 200.517	    39.40200     -0.28319   70.7129    20.00000 0.95130
 200.847	    39.46800     -0.29472   70.6851    20.00000 0.95112
 201.177	    39.53400     -0.30654   70.6567    20.00000 0.95094
 201.508	    39.60000     -0.31879   70.6261    20.00000 0.95076
 201.839	    39.66600     -0.32963   70.5942    20.00000 0.95059
 202.171	    39.73200     -0.34141   70.5636    20.00000 0.95041
 202.502	    39.79800     -0.35136   70.5254    20.00000 0.95023
 202.833	    39.86400     -0.36354   70.4935    20.00000 0.95005
 203.165	    39.93000     -0.37444   70.4574    20.00000 0.94988
 203.494	    39.99600     -0.38606   70.4145    20.00000 0.94970
 203.825	    40.06200     -0.39703   70.3742    20.00000 0.94952
 204.156	    40.12800     -0.40835   70.333    20.00000 0.94934
 204.486	    40.19400     -0.41939   70.2963    20.00000 0.94917
 204.816	    40.26000     -0.42978   70.2561    20.00000 0.94899
 205.147	    40.32600     -0.44026   70.214    20.00000 0.94881
 205.477	    40.39200     -0.45054   70.1702    20.00000 0.94863
 205.807	    40.45800     -0.46312   70.1318    20.00000 0.94846
 206.138	    40.52400     -0.47295   70.092    20.00000 0.94828
 206.469	    40.59000     -0.48439   70.0498    20.00000 0.94810
 206.8	    40.65600     -0.49436   70.0028    20.00000 0.94793
 207.131	    40.72200     -0.50460   69.96    20.00000 0.94775
 207.462	    40.78800     -0.51410   69.9129    20.00000 0.94757
 207.794	    40.85400     -0.52611   69.8638    20.00000 0.94740
 208.125	    40.92000     -0.53627   69.8192    20.00000 0.94722
 208.456	    40.98600     -0.54519   69.7688    20.00000 0.94704
 208.786	    41.05200     -0.55537   69.7183    20.00000 0.94686
 209.117	    41.11800     -0.56601   69.6686    20.00000 0.94669
 209.448	    41.18400     -0.57535   69.6223    20.00000 0.94651
 209.778	    41.25000     -0.58500   69.5687    20.00000 0.94633
 210.109	    41.31600     -0.59498   69.5117    20.00000 0.94616
 210.441	    41.38200     -0.60476   69.4537    20.00000 0.94598
 210.773	    41.44800     -0.61422   69.3939    20.00000 0.94580
 211.105	    41.51400     -0.62347   69.3376    20.00000 0.94563
 211.436	    41.58000     -0.63308   69.2851    20.00000 0.94545
 211.767	    41.64600     -0.64118   69.2368    20.00000 0.94527
 212.099	    41.71200     -0.65074   69.1796    20.00000 0.94510
 212.43	    41.77800     -0.65946   69.1254    20.00000 0.94492
 212.761	    41.84400     -0.66732   69.0723    20.00000 0.94474
 213.092	    41.91000     -0.67590   69.0138    20.00000 0.94456
 213.423	    41.97600     -0.68506   68.9574    20.00000 0.94439
 213.754	    42.04200     -0.69287   68.8906    20.00000 0.94421
 214.085	    42.10800     -0.70081   68.8265    20.00000 0.94403
 214.416	    42.17400     -0.70858   68.7653    20.00000 0.94386
 214.747	    42.24000     -0.71596   68.7071    20.00000 0.94368
 215.078	    42.30600     -0.72397   68.6455    20.00000 0.94350
 215.41	    42.37200     -0.73099   68.5814    20.00000 0.94333
 215.743	    42.43800     -0.73792   68.5178    20.00000 0.94315
 216.075	    42.50400     -0.74357   68.456    20.00000 0.94297
 216.408	    42.57000     -0.75135   68.3877    20.00000 0.94280
 216.741	    42.63600     -0.75705   68.3267    20.00000 0.94262
 217.074	    42.70200     -0.76372   68.2625    20.00000 0.94244
 217.406	    42.76800     -0.76926   68.1894    20.00000 0.94227
 217.738	    42.83400     -0.77519   68.1224    20.00000 0.94209
 218.07	    42.90000     -0.77944   68.0524    20.00000 0.94191
 218.401	    42.96600     -0.78397   67.9798    20.00000 0.94174
 218.733	    43.03200     -0.78845   67.9153    20.00000 0.94156
 219.065	    43.09800     -0.79248   67.8446    20.00000 0.94138
 219.398	    43.16400     -0.79650   67.7765    20.00000 0.94121
 219.733	    43.23000     -0.80010   67.7058    20.00000 0.94103
 220.066	    43.29600     -0.80194   67.6383    20.00000 0.94085
 220.4	    43.36200     -0.80454   67.5759    20.00000 0.94068
 220.733	    43.42800     -0.80615   67.504    20.00000 0.94050
 221.066	    43.49400     -0.80809   67.4312    20.00000 0.94032
 221.399	    43.56000     -0.80908   67.361    20.00000 0.94015
 221.731	    43.62600     -0.80976   67.2989    20.00000 0.93997
 222.064	    43.69200     -0.80974   67.231    20.00000 0.93980
 222.396	    43.75800     -0.80970   67.1646    20.00000 0.93962
 222.729	    43.82400     -0.80845   67.0936    20.00000 0.93944
 223.062	    43.89000     -0.80720   67.0264    20.00000 0.93927
 223.395	    43.95600     -0.80565   66.9591    20.00000 0.93909
 223.728	    44.02200     -0.80189   66.8898    20.00000 0.93891
 224.061	    44.08800     -0.79955   66.8237    20.00000 0.93874
 224.394	    44.15400     -0.79554   66.7566    20.00000 0.93856
 224.727	    44.22000     -0.79052   66.6866    20.00000 0.93838
 225.061	    44.28600     -0.78521   66.6159    20.00000 0.93820
 225.394	    44.35200     -0.77875   66.5557    20.00000 0.93803
 225.728	    44.41800     -0.77352   66.4912    20.00000 0.93785
 226.063	    44.48400     -0.76637   66.4152    20.00000 0.93767
 226.398	    44.55000     -0.75846   66.3518    20.00000 0.93750
 226.732	    44.61600     -0.75059   66.2909    20.00000 0.93732
 227.066	    44.68200     -0.74247   66.2258    20.00000 0.93715
 227.4	    44.74800     -0.73344   66.1661    20.00000 0.93697
 227.735	    44.81400     -0.72458   66.1095    20.00000 0.93679
 228.069	    44.88000     -0.71394   66.0539    20.00000 0.93661
 228.403	    44.94600     -0.70476   65.9924    20.00000 0.93644
 228.738	    45.01200     -0.69246   65.9311    20.00000 0.93626
 229.072	    45.07800     -0.68201   65.8736    20.00000 0.93608
 229.407	    45.14400     -0.67032   65.8194    20.00000 0.93590
 229.742	    45.21000     -0.65927   65.7634    20.00000 0.93572
 230.076	    45.27600     -0.64688   65.7061    20.00000 0.93555
 230.412	    45.34200     -0.63423   65.65    20.00000 0.93537
 230.746	    45.40800     -0.62177   65.5956    20.00000 0.93519
 231.082	    45.47400     -0.60968   65.5402    20.00000 0.93502
 231.417	    45.54000     -0.59665   65.4867    20.00000 0.93484
 231.752	    45.60600     -0.58401   65.4378    20.00000 0.93466
 232.088	    45.67200     -0.57066   65.3875    20.00000 0.93449
 232.425	    45.73800     -0.55682   65.3426    20.00000 0.93431
 232.761	    45.80400     -0.54247   65.2936    20.00000 0.93413
 233.098	    45.87000     -0.52848   65.2513    20.00000 0.93395
 233.435	    45.93600     -0.51562   65.2074    20.00000 0.93377
 233.772	    46.00200     -0.50033   65.1652    20.00000 0.93360
 234.109	    46.06800     -0.48729   65.1246    20.00000 0.93342
 234.447	    46.13400     -0.47352   65.0882    20.00000 0.93324
 234.785	    46.20000     -0.45987   65.0471    20.00000 0.93307
 235.122	    46.26600     -0.44470   65.0091    20.00000 0.93289
 235.459	    46.33200     -0.43177   64.972    20.00000 0.93271
 235.796	    46.39800     -0.41869   64.928    20.00000 0.93253
 236.133	    46.46400     -0.40561   64.8992    20.00000 0.93236
 236.47	    46.53000     -0.39145   64.8628    20.00000 0.93218
 236.805	    46.59600     -0.37775   64.8239    20.00000 0.93201
 237.142	    46.66200     -0.36643   64.7883    20.00000 0.93183
 237.479	    46.72800     -0.35352   64.7563    20.00000 0.93165
 237.816	    46.79400     -0.34044   64.7268    20.00000 0.93148
 238.153	    46.86000     -0.32673   64.6993    20.00000 0.93130
 238.489	    46.92600     -0.31501   64.6741    20.00000 0.93112
 238.826	    46.99200     -0.30262   64.6488    20.00000 0.93095
 239.163	    47.05800     -0.29165   64.6173    20.00000 0.93077
 239.5	    47.12400     -0.27820   64.5861    20.00000 0.93059
 239.834	    47.19000     -0.26743   64.5569    20.00000 0.93042
 240.169	    47.25600     -0.25433   64.5342    20.00000 0.93024
 240.504	    47.32200     -0.24493   64.5133    20.00000 0.93006
 240.839	    47.38800     -0.23382   64.4979    20.00000 0.92988
 241.173	    47.45400     -0.22367   64.4811    20.00000 0.92971
 241.507	    47.52000     -0.21336   64.4612    20.00000 0.92953
 241.844	    47.58600     -0.20273   64.4427    20.00000 0.92935
 242.179	    47.65200     -0.19258   64.4277    20.00000 0.92918
 242.516	    47.71800     -0.18429   64.4109    20.00000 0.92900
 242.852	    47.78400     -0.17510   64.3946    20.00000 0.92883
 243.189	    47.85000     -0.16623   64.3758    20.00000 0.92865
 243.527	    47.91600     -0.15733   64.3643    20.00000 0.92847
 243.864	    47.98200     -0.14968   64.3534    20.00000 0.92830
 244.203	    48.04800     -0.14102   64.342    20.00000 0.92812
 244.541	    48.11400     -0.13390   64.3277    20.00000 0.92795
 244.878	    48.18000     -0.12490   64.318    20.00000 0.92777
 245.215	    48.24600     -0.11859   64.3003    20.00000 0.92759
 245.552	    48.31200     -0.11128   64.2856    20.00000 0.92742
 245.889	    48.37800     -0.10487   64.2783    20.00000 0.92724
 246.226	    48.44400 -9.7916e-002   64.2737    20.00000 0.92707
 246.561	    48.51000 -9.2052e-002   64.267    20.00000 0.92689
 246.897	    48.57600 -8.5516e-002   64.2529    20.00000 0.92672
 247.234	    48.64200 -7.9361e-002   64.2456    20.00000 0.92654
 247.569	    48.70800 -7.5308e-002   64.239    20.00000 0.92637
 247.906	    48.77400 -6.9710e-002   64.2308    20.00000 0.92619
 248.242	    48.84000 -6.4390e-002   64.2284    20.00000 0.92602
 248.58	    48.90600 -5.9631e-002   64.2249    20.00000 0.92584
 248.916	    48.97200 -5.4795e-002   64.22    20.00000 0.92567
 249.252	    49.03800 -4.9958e-002   64.2134    20.00000 0.92549
 249.588	    49.10400 -4.6327e-002   64.2079    20.00000 0.92532
 249.924	    49.17000 -4.2145e-002   64.2017    20.00000 0.92514
 250.26	    49.23600 -3.8241e-002   64.1922    20.00000 0.92497
 250.594	    49.30200 -3.4278e-002   64.1885    20.00000 0.92479
 250.931	    49.36800 -3.1555e-002   64.1873    20.00000 0.92462
 251.267	    49.43400 -2.8170e-002   64.1868    20.00000 0.92444
 251.603	    49.50000 -2.5118e-002   64.1899    20.00000 0.92427
 251.94	    49.56600 -2.1505e-002   64.1883    20.00000 0.92410
 252.277	    49.63200 -1.9830e-002   64.1805    20.00000 0.92392
 252.613	    49.69800 -1.6649e-002   64.1749    20.00000 0.92375
 252.947	    49.76400 -1.4458e-002   64.1734    20.00000 0.92357
 253.281	    49.83000 -1.2141e-002   64.169    20.00000 0.92340
 253.615	    49.89600 -1.0469e-002   64.1618    20.00000 0.92322
 253.948	    49.96200 -9.3253e-003   64.1588    20.00000 0.92305
 254.28	    50.02800 -6.6110e-003   64.1584    20.00000 0.92288
 254.615	    50.09400 -5.2832e-003   64.1524    20.00000 0.92270
 254.951	    50.16000 -3.4414e-003   64.1501    20.00000 0.92253
 255.286	    50.22600 -2.4579e-003   64.1521    20.00000 0.92236
 255.621	    50.29200 -7.0502e-004   64.1503    20.00000 0.92218
 255.955	    50.35800  4.8138e-004   64.1469    20.00000 0.92201
 256.291	    50.42400  6.2999e-004   64.1433    20.00000 0.92184
 256.626	    50.49000  2.2606e-003   64.1414    20.00000 0.92166
 256.96	    50.55600  2.5080e-003   64.1415    20.00000 0.92149
 257.295	    50.62200  3.1383e-003   64.1415    20.00000 0.92132
 257.629	    50.68800  5.3300e-003   64.1419    20.00000 0.92114
 257.966	    50.75400  5.6521e-003   64.1407    20.00000 0.92097
 258.303	    50.82000  6.4648e-003   64.1413    20.00000 0.92080
 258.638	    50.88600  6.8377e-003   64.1402    20.00000 0.92062
 258.974	    50.95200  7.9344e-003   64.1351    20.00000 0.92045
 259.309	    51.01800  8.6520e-003   64.1338    20.00000 0.92028
 259.646	    51.08400  9.0469e-003   64.1334    20.00000 0.92011
 259.98	    51.15000  9.7062e-003   64.1325    20.00000 0.91994
 260.314	    51.21600  9.9390e-003   64.1316    20.00000 0.91976
 260.648	    51.28200  1.0523e-002   64.1317    20.00000 0.91959
 260.982	    51.34800  1.0911e-002   64.1336    20.00000 0.91942
 261.316	    51.41400  1.1395e-002   64.1352    20.00000 0.91925
 261.649	    51.48000  1.2090e-002   64.1335    20.00000 0.91907
 261.982	    51.54600  1.2533e-002   64.1326    20.00000 0.91890
 262.315	    51.61200  1.2881e-002   64.1332    20.00000 0.91873
 262.648	    51.67800  1.1558e-002   64.1309    20.00000 0.91856
 262.981	    51.74400  1.2203e-002   64.1278    20.00000 0.91839
 263.314	    51.81000  1.3398e-002   64.1268    20.00000 0.91821
 263.647	    51.87600  1.3048e-002   64.1296    20.00000 0.91804
 263.981	    51.94200  1.3115e-002   64.1322    20.00000 0.91787
 264.315	    52.00800  1.4151e-002   64.1325    20.00000 0.91770
 264.648	    52.07400  1.3154e-002   64.1321    20.00000 0.91753
 264.982	    52.14000  1.4059e-002   64.1315    20.00000 0.91736
 265.315	    52.20600  1.3619e-002   64.1304    20.00000 0.91719
 265.648	    52.27200  1.4029e-002   64.1302    20.00000 0.91702
 265.981	    52.33800  1.4411e-002   64.1287    20.00000 0.91684
 266.314	    52.40400  1.4110e-002   64.1278    20.00000 0.91667
 266.647	    52.47000  1.4506e-002   64.1304    20.00000 0.91650
 266.981	    52.53600  1.5092e-002   64.1336    20.00000 0.91633
 267.314	    52.60200  1.5000e-002   64.133    20.00000 0.91616
 267.648	    52.66800  1.4982e-002   64.1315    20.00000 0.91599
 267.982	    52.73400  1.4845e-002   64.1291    20.00000 0.91582
 268.315	    52.80000  1.4086e-002   64.1257    20.00000 0.91565
 268.648	    52.86600  1.4463e-002   64.1243    20.00000 0.91547
 268.981	    52.93200  1.5637e-002   64.1266    20.00000 0.91530
 269.314	    52.99800  1.5008e-002   64.1294    20.00000 0.91513
 269.646	    53.06400  1.5207e-002   64.131    20.00000 0.91496
 269.979	    53.13000  1.5617e-002   64.1307    20.00000 0.91479
 270.311	    53.19600  1.5198e-002   64.1329    20.00000 0.91462
 270.644	    53.26200  1.5659e-002   64.137    20.00000 0.91445
 270.977	    53.32800  1.5729e-002   64.1404    20.00000 0.91428
 271.31	    53.39400  1.5539e-002   64.1379    20.00000 0.91411
 271.643	    53.46000  1.5958e-002   64.1315    20.00000 0.91394
 271.976	    53.52600  1.5625e-002   64.1256    20.00000 0.91376
 272.309	    53.59200  1.5193e-002   64.1228    20.00000 0.91359
 272.642	    53.65800  1.6007e-002   64.1202    20.00000 0.91342
 272.975	    53.72400  1.5454e-002   64.1188    20.00000 0.91325
 273.308	    53.79000  1.5646e-002   64.1198    20.00000 0.91308
 273.641	    53.85600  1.5641e-002   64.1238    20.00000 0.91291
 273.974	    53.92200  1.5555e-002   64.1255    20.00000 0.91274
 274.307	    53.98800  1.6228e-002   64.1253    20.00000 0.91257
 274.639	    54.05400  1.5530e-002   64.126    20.00000 0.91240
 274.972	    54.12000  1.5335e-002   64.1285    20.00000 0.91223
 275.304	    54.18600  1.6308e-002   64.1286    20.00000 0.91206
 275.637	    54.25200  1.5333e-002   64.1267    20.00000 0.91189
 275.97	    54.31800  1.6139e-002   64.1249    20.00000 0.91172
 276.302	    54.38400  1.5527e-002   64.1244    20.00000 0.91155
 276.636	    54.45000  1.6220e-002   64.1231    20.00000 0.91138
 276.969	    54.51600  1.5624e-002   64.1232    20.00000 0.91121
 277.302	    54.58200  1.5835e-002   64.1252    20.00000 0.91104
 277.634	    54.64800  1.5335e-002   64.1283    20.00000 0.91087
 277.966	    54.71400  1.5646e-002   64.1288    20.00000 0.91070
 278.298	    54.78000  1.5037e-002   64.1283    20.00000 0.91053
 278.631	    54.84600  1.5798e-002   64.1298    20.00000 0.91036
 278.963	    54.91200  1.5438e-002   64.1317    20.00000 0.91020
 279.296	    54.97800  1.5988e-002   64.1322    20.00000 0.91003
 279.628	    55.04400  1.5361e-002   64.1311    20.00000 0.90986
 279.961	    55.11000  1.5269e-002   64.1296    20.00000 0.90969
 280.293	    55.17600  1.5283e-002   64.1286    20.00000 0.90952
 280.626	    55.24200  1.4873e-002   64.1269    20.00000 0.90935
 280.958	    55.30800  1.5427e-002   64.1252    20.00000 0.90918
 281.29	    55.37400  1.4832e-002   64.1244    20.00000 0.90901
 281.623	    55.44000  1.4737e-002   64.1236    20.00000 0.90884
 281.955	    55.50600  1.5023e-002   64.1212    20.00000 0.90868
 282.287	    55.57200  1.4733e-002   64.1215    20.00000 0.90851
 282.618	    55.63800  1.4976e-002   64.1225    20.00000 0.90834
 282.95	    55.70400  1.5140e-002   64.1216    20.00000 0.90817
 283.282	    55.77000  1.5078e-002   64.1205    20.00000 0.90801
 283.614	    55.83600  1.4103e-002   64.1219    20.00000 0.90784
 283.947	    55.90200  1.4854e-002   64.1246    20.00000 0.90767
 284.28	    55.96800  1.4568e-002   64.1258    20.00000 0.90750
 284.612	    56.03400  1.4021e-002   64.1275    20.00000 0.90733
 284.943	    56.10000  1.4545e-002   64.1289    20.00000 0.90717
 285.275	    56.16600  1.5095e-002   64.1283    20.00000 0.90700
 285.606	    56.23200  1.4520e-002   64.1273    20.00000 0.90683
 285.937	    56.29800  1.4514e-002   64.1292    20.00000 0.90666
 286.268	    56.36400  1.4318e-002   64.1301    20.00000 0.90650
 286.6	    56.43000  1.4012e-002   64.1298    20.00000 0.90633
 286.932	    56.49600  1.4826e-002   64.1299    20.00000 0.90616
 287.265	    56.56200  1.4179e-002   64.1294    20.00000 0.90600
 287.597	    56.62800  1.3831e-002   64.1292    20.00000 0.90583
 287.929	    56.69400  1.3686e-002   64.1272    20.00000 0.90566
 288.261	    56.76000  1.3805e-002   64.1238    20.00000 0.90549
 288.594	    56.82600  1.3016e-002   64.1196    20.00000 0.90533
 288.926	    56.89200  1.3682e-002   64.1183    20.00000 0.90516
 289.257	    56.95800  1.3622e-002   64.1204    20.00000 0.90499
 289.589	    57.02400  1.4073e-002   64.1223    20.00000 0.90483
 289.92	    57.09000  1.4366e-002   64.1221    20.00000 0.90466
 290.251	    57.15600  1.3585e-002   64.1207    20.00000 0.90449
 290.582	    57.22200  1.3307e-002   64.1193    20.00000 0.90433
 290.913	    57.28800  1.3657e-002   64.1201    20.00000 0.90416
 291.244	    57.35400  1.4084e-002   64.1228    20.00000 0.90399
 291.577	    57.42000  1.3721e-002   64.1282    20.00000 0.90383
 291.908	    57.48600  1.4153e-002   64.1303    20.00000 0.90366
 292.24	    57.55200  1.3791e-002   64.1301    20.00000 0.90349
 292.572	    57.61800  1.2948e-002   64.1354    20.00000 0.90333
 292.903	    57.68400  1.3947e-002   64.1462    20.00000 0.90316
 293.234	    57.75000  1.3184e-002   64.13    20.00000 0.90299
 293.565	    57.81600  1.3491e-002   64.1257    20.00000 0.90283
 293.898	    57.88200  1.2821e-002   64.129    20.00000 0.90266
 294.231	    57.94800  1.3107e-002   64.1302    20.00000 0.90250
 294.563	    58.01400  1.3331e-002   64.1304    20.00000 0.90233
 294.897	    58.08000  1.2427e-002   64.13    20.00000 0.90216
 295.231	    58.14600  1.2945e-002   64.1289    20.00000 0.90200
 295.564	    58.21200  1.2654e-002   64.132    20.00000 0.90183
 295.896	    58.27800  1.2118e-002   64.1373    20.00000 0.90166
 296.229	    58.34400  1.2340e-002   64.1406    20.00000 0.90150
 296.56	    58.41000  1.1888e-002   64.1401    20.00000 0.90133
 296.893	    58.47600  1.1785e-002   64.1412    20.00000 0.90116
 297.226	    58.54200  1.1538e-002   64.1412    20.00000 0.90100
 297.558	    58.60800  1.0589e-002   64.141    20.00000 0.90083
 297.889	    58.67400  1.1436e-002   64.1406    20.00000 0.90067
 298.222	    58.74000  1.1017e-002   64.1403    20.00000 0.90050
 298.554	    58.80600  1.1456e-002   64.1397    20.00000 0.90033
 298.885	    58.87200  1.1233e-002   64.1384    20.00000 0.90017
 299.216	    58.93800  1.1773e-002   64.1395    20.00000 0.90000
 299.548	    59.00400  1.1733e-002   64.1385    20.00000 0.89983
 299.881	    59.07000  1.0366e-002   64.1362    20.00000 0.89967
 300.213	    59.13600  1.0844e-002   64.1362    20.00000 0.89950
 300.544	    59.20200  1.1426e-002   64.1376    20.00000 0.89934
 300.876	    59.26800  1.0619e-002   64.1404    20.00000 0.89917
 301.208	    59.33400  1.0673e-002   64.1414    20.00000 0.89901
 301.539	    59.40000  1.0265e-002   64.1399    20.00000 0.89884
 301.87	    59.46600  9.8520e-003   64.1384    20.00000 0.89868
 302.2	    59.53200  1.0222e-002   64.1368    20.00000 0.89851
 302.53	    59.59800  9.7466e-003   64.1361    20.00000 0.89835
 302.861	    59.66400  9.8058e-003   64.1366    20.00000 0.89818
 303.191	    59.73000  1.0606e-002   64.1385    20.00000 0.89802
 303.522	    59.79600  9.7836e-003   64.1419    20.00000 0.89785
 303.853	    59.86200  9.6409e-003   64.1454    20.00000 0.89769
 304.184	    59.92800  9.4753e-003   64.147    20.00000 0.89753
 304.514	    59.99400  9.7598e-003   64.1487    20.00000 0.89736
 304.844	    60.06000  9.6204e-003   64.1483    20.00000 0.89720
 305.175	    60.12600  9.4138e-003   64.1462    20.00000 0.89703
 305.504	    60.19200  9.6033e-003   64.1447    20.00000 0.89687
 305.833	    60.25800  9.6379e-003   64.1438    20.00000 0.89671
 306.162	    60.32400  8.9838e-003   64.1396    20.00000 0.89654
 306.491	    60.39000  8.9651e-003   64.1378    20.00000 0.89638
 306.82	    60.45600  9.5920e-003   64.1378    20.00000 0.89621
 307.149	    60.52200  9.1943e-003   64.139    20.00000 0.89605
 307.479	    60.58800  8.3795e-003   64.1403    20.00000 0.89589
 307.811	    60.65400  8.2715e-003   64.1407    20.00000 0.89572
 308.142	    60.72000  9.5272e-003   64.1385    20.00000 0.89556
 308.473	    60.78600  8.9790e-003   64.1367    20.00000 0.89540
 308.805	    60.85200  8.4689e-003   64.1354    20.00000 0.89524
 309.137	    60.91800  8.8247e-003   64.1347    20.00000 0.89507
 309.468	    60.98400  8.6730e-003   64.1345    20.00000 0.89491
 309.799	    61.05000  8.5379e-003   64.1367    20.00000 0.89475
 310.129	    61.11600  8.3477e-003   64.1385    20.00000 0.89459
 310.459	    61.18200  7.6560e-003   64.1388    20.00000 0.89442
 310.79	    61.24800  8.3599e-003   64.1384    20.00000 0.89426
 311.121	    61.31400  7.9851e-003   64.1398    20.00000 0.89409
 311.453	    61.38000  7.5470e-003   64.1417    20.00000 0.89393
 311.785	    61.44600  7.2227e-003   64.142    20.00000 0.89377
 312.118	    61.51200  7.4587e-003   64.1397    20.00000 0.89361
 312.454	    61.57800  7.5655e-003   64.1377    20.00000 0.89344
 312.788	    61.64400  6.9753e-003   64.136    20.00000 0.89328
 313.122	    61.71000  6.7762e-003   64.1351    20.00000 0.89312
 313.456	    61.77600  7.2973e-003   64.1327    20.00000 0.89296
 313.79	    61.84200  7.0499e-003   64.1273    20.00000 0.89279
 314.123	    61.90800  6.5315e-003   64.1264    20.00000 0.89263
 314.455	    61.97400  6.2171e-003   64.1298    20.00000 0.89247
 314.787	    62.04000  6.1152e-003   64.1314    20.00000 0.89231
 315.119	    62.10600  6.2123e-003   64.132    20.00000 0.89214
 315.451	    62.17200  7.2039e-003   64.1342    20.00000 0.89198
 315.782	    62.23800  5.9536e-003   64.1346    20.00000 0.89182
 316.113	    62.30400  6.5089e-003   64.1344    20.00000 0.89166
 316.443	    62.37000  5.8982e-003   64.1338    20.00000 0.89150
 316.773	    62.43600  5.8218e-003   64.1335    20.00000 0.89133
 317.104	    62.50200  5.9309e-003   64.1349    20.00000 0.89117
 317.434	    62.56800  5.3801e-003   64.138    20.00000 0.89101
 317.764	    62.63400  4.7898e-003   64.1401    20.00000 0.89085
 318.094	    62.70000  4.5669e-003   64.1395    20.00000 0.89069
 318.426	    62.76600  4.4040e-003   64.1356    20.00000 0.89053
 318.755	    62.83200  4.3113e-003   64.1377    20.00000 0.89037
 319.085	    62.89800  4.6325e-003   64.1431    20.00000 0.89020
 319.415	    62.96400  5.0312e-003   64.1464    20.00000 0.89004
 319.745	    63.03000  4.5710e-003   64.1461    20.00000 0.88988
 320.077	    63.09600  4.1344e-003   64.1466    20.00000 0.88972
 320.408	    63.16200  3.9420e-003   64.1498    20.00000 0.88956
 320.739	    63.22800  4.1776e-003   64.1512    20.00000 0.88940
 321.071	    63.29400  4.2290e-003   64.1492    20.00000 0.88924
 321.402	    63.36000  3.7941e-003   64.1491    20.00000 0.88907
 321.734	    63.42600  2.9108e-003   64.1493    20.00000 0.88891
 322.065	    63.49200  3.3845e-003   64.1493    20.00000 0.88875
 322.396	    63.55800  3.8000e-003   64.1493    20.00000 0.88859
 322.727	    63.62400  2.3853e-003   64.1495    20.00000 0.88843
 323.057	    63.69000  3.2390e-003   64.156    20.00000 0.88827
 323.388	    63.75600  3.2315e-003   64.1574    20.00000 0.88811
 323.719	    63.82200  3.0680e-003   64.1539    20.00000 0.88795
 324.05	    63.88800  2.9660e-003   64.1541    20.00000 0.88779
 324.381	    63.95400  2.3550e-003   64.1535    20.00000 0.88763
 324.714	    64.02000  2.5715e-003   64.1515    20.00000 0.88747
 325.045	    64.08600  2.1179e-003   64.1486    20.00000 0.88730
 325.377	    64.15200  2.5201e-003   64.1453    20.00000 0.88714
 325.709	    64.21800  2.8752e-003   64.1447    20.00000 0.88698
 326.04	    64.28400  2.1524e-003   64.144    20.00000 0.88682
 326.371	    64.35000  2.5735e-003   64.1453    20.00000 0.88666
 326.702	    64.41600  1.7901e-003   64.1489    20.00000 0.88650
 327.033	    64.48200  1.2755e-003   64.1546    20.00000 0.88634
 327.363	    64.54800  1.8084e-003   64.1544    20.00000 0.88618
 327.694	    64.61400  1.2609e-003   64.1533    20.00000 0.88602
 328.024	    64.68000  4.4797e-004   64.1527    20.00000 0.88586
 328.356	    64.74600  9.2260e-004   64.1506    20.00000 0.88570
 328.688	    64.81200  1.1845e-003   64.1473    20.00000 0.88553
 329.019	    64.87800  6.8827e-004   64.147    20.00000 0.88537
 329.35	    64.94400  9.3722e-004   64.1494    20.00000 0.88521
 329.681	    65.01000  1.0090e-003   64.1506    20.00000 0.88506
 330.012	    65.07600  5.2139e-004   64.1516    20.00000 0.88490
 330.343	    65.14200  8.0218e-004   64.1521    20.00000 0.88474
 330.673	    65.20800  6.2049e-005   64.1526    20.00000 0.88458
 331.003	    65.27400  6.1367e-005   64.1501    20.00000 0.88442
 331.334	    65.34000 -3.3659e-004   64.1485    20.00000 0.88426
 331.664	    65.40600 -1.1688e-004   64.1495    20.00000 0.88410
 331.994	    65.47200 -3.3332e-004   64.1519    20.00000 0.88394
 332.325	    65.53800 -6.8771e-004   64.1541    20.00000 0.88378
 332.656	    65.60400 -1.6112e-004   64.1556    20.00000 0.88362
 332.987	    65.67000 -1.0823e-007   64.1562    20.00000 0.88346
 333.317	    65.73600  1.1557e-006   64.1582    20.00000 0.88330
 333.651	    65.80200 -3.0041e-004   64.1589    20.00000 0.88315
 333.977	    65.86800 -5.6497e-004   64.158    20.00000 0.88298
 334.306	    65.93400 -8.8758e-004   64.1573    20.00000 0.88283

